Data recorded on Sun May 14 18:35:20 CAT 2017
Time: 18:35:20
Time		Millis		IR PPG		Red PPG		Filtered		SSF
35,24	,	3685	,	-14109	,	-14136	,	-965.2811	,	0
35,24	,	3715	,	-22363	,	-22307	,	-2482.4229	,	0
35,24	,	3731	,	-30505	,	-23288	,	-4415.2095	,	0
35,24	,	3748	,	-37846	,	-23287	,	-6489.6577	,	0
35,24	,	3779	,	-37867	,	-23270	,	-8595.3	,	0
35,24	,	3795	,	-37849	,	-23246	,	-10563.452	,	0
35,24	,	3811	,	-37839	,	-23261	,	-12134.139	,	0
35,24	,	3843	,	-37851	,	-23262	,	-13070.401	,	0
35,24	,	3859	,	-37836	,	-23265	,	-13251.137	,	0
35,24	,	3875	,	-37860	,	-23265	,	-12686.848	,	564
35,24	,	3907	,	-37873	,	-23272	,	-11494.924	,	1191
35,24	,	3923	,	-37878	,	-23276	,	-9858.699	,	1636
35,24	,	3939	,	-37878	,	-23270	,	-7985.1436	,	1873
35,24	,	3955	,	-37873	,	-23268	,	-6070.0947	,	1915
35,24	,	3987	,	-37874	,	-23266	,	-4274.823	,	1795
35,24	,	4003	,	-37894	,	-23269	,	-2714.0874	,	1560
35,24	,	4019	,	-37886	,	-23275	,	-1453.6865	,	1260
35,24	,	4051	,	-37898	,	-23272	,	-514.71375	,	938
35,24	,	4067	,	-37904	,	-23278	,	117.68091	,	632
35,24	,	4083	,	-37915	,	-23278	,	483.3144	,	365
35,24	,	4115	,	-37924	,	-23276	,	636.10266	,	152
35,24	,	4131	,	-37936	,	-23280	,	634.5838	,	0
35,24	,	4147	,	-37942	,	-23285	,	534.53656	,	0
35,24	,	4179	,	-37969	,	-23290	,	383.93912	,	0
35,24	,	4195	,	-37981	,	-23298	,	220.14447	,	0
35,24	,	4211	,	-37986	,	-23302	,	69.26248	,	0
35,24	,	4227	,	-38002	,	-23303	,	-52.897156	,	0
35,24	,	4259	,	-38017	,	-23299	,	-139.32605	,	0
35,24	,	4275	,	-38022	,	-23316	,	-189.86723	,	0
35,24	,	4291	,	-38042	,	-23325	,	-208.93683	,	0
35,24	,	4323	,	-38065	,	-23304	,	-203.5831	,	5
35,24	,	4339	,	-38077	,	-23322	,	-181.88718	,	21
35,24	,	4355	,	-38100	,	-23326	,	-151.53677	,	30
35,24	,	4387	,	-38106	,	-23332	,	-118.87819	,	32
35,24	,	4403	,	-38117	,	-23333	,	-88.454285	,	30
35,24	,	4419	,	-38122	,	-23338	,	-62.931396	,	25
35,24	,	4435	,	-38131	,	-23339	,	-43.415684	,	19
35,24	,	4467	,	-38108	,	-23318	,	-29.773163	,	13
35,24	,	4483	,	-38056	,	-23310	,	-20.617456	,	9
35,24	,	4499	,	-37990	,	-23304	,	-13.373623	,	7
35,24	,	4531	,	-37938	,	-23282	,	-5.0439596	,	8
35,24	,	4547	,	-37925	,	-23275	,	6.4223633	,	11
35,24	,	4563	,	-37909	,	-23267	,	21.119503	,	14
35,25	,	4595	,	-37869	,	-23265	,	37.575466	,	16
35,25	,	4611	,	-37839	,	-23253	,	54.043446	,	16
35,25	,	4627	,	-37821	,	-23245	,	69.15286	,	15
35,25	,	4659	,	-37798	,	-23242	,	81.81372	,	12
35,25	,	4675	,	-37792	,	-23235	,	91.170006	,	9
35,25	,	4691	,	-37807	,	-23236	,	96.52059	,	5
35,25	,	4707	,	-37792	,	-23234	,	97.29784	,	0
35,25	,	4738	,	-37807	,	-23239	,	93.39981	,	0
35,25	,	4771	,	-37817	,	-23236	,	73.72887	,	0
35,25	,	4803	,	-37814	,	-23251	,	59.88966	,	0
35,25	,	4819	,	-37814	,	-23236	,	45.162262	,	0
35,25	,	4834	,	-37824	,	-23224	,	30.899025	,	0
35,25	,	4866	,	-37829	,	-23235	,	18.067722	,	0
35,25	,	4882	,	-37827	,	-23232	,	7.217821	,	0
35,25	,	4898	,	-37842	,	-23238	,	-1.400816	,	0
35,25	,	4930	,	-37845	,	-23247	,	-7.855341	,	0
35,25	,	4947	,	-37850	,	-23244	,	-12.440904	,	0
35,25	,	4963	,	-37870	,	-23248	,	-15.549757	,	0
35,25	,	4979	,	-37878	,	-23250	,	-17.708857	,	0
35,25	,	5010	,	-37882	,	-23252	,	-19.430279	,	0
35,25	,	5026	,	-37890	,	-23254	,	-20.953487	,	0
35,25	,	5043	,	-37906	,	-23273	,	-22.330551	,	0
35,25	,	5074	,	-37925	,	-23265	,	-23.69347	,	0
35,25	,	5090	,	-37955	,	-23276	,	-25.379517	,	0
35,25	,	5106	,	-37976	,	-23283	,	-27.848934	,	0
35,25	,	5138	,	-37982	,	-23287	,	-31.353855	,	0
35,25	,	5170	,	-37996	,	-23295	,	-40.08871	,	0
35,25	,	5202	,	-38012	,	-23296	,	-43.898888	,	0
35,25	,	5218	,	-38035	,	-23310	,	-46.574493	,	0
35,25	,	5234	,	-38042	,	-23309	,	-48.099503	,	0
35,25	,	5250	,	-38054	,	-23305	,	-48.682697	,	0
35,25	,	5282	,	-38055	,	-23308	,	-48.440704	,	0
35,25	,	5298	,	-38078	,	-23321	,	-47.443233	,	0
35,25	,	5314	,	-38065	,	-23319	,	-45.80547	,	1
35,25	,	5346	,	-38000	,	-23276	,	-43.18907	,	2
35,25	,	5362	,	-37945	,	-23256	,	-38.218567	,	4
35,25	,	5378	,	-37909	,	-23255	,	-29.14571	,	9
35,25	,	5410	,	-37864	,	-23251	,	-15.146212	,	13
35,25	,	5426	,	-37838	,	-23240	,	3.2333794	,	18
35,25	,	5442	,	-37808	,	-23234	,	24.368793	,	21
35,25	,	5474	,	-37796	,	-23233	,	46.02314	,	21
35,25	,	5491	,	-37756	,	-23223	,	65.95621	,	19
35,25	,	5506	,	-37753	,	-23223	,	82.46091	,	16
35,25	,	5522	,	-37725	,	-23213	,	94.48013	,	12
35,25	,	5554	,	-37729	,	-23206	,	101.5077	,	7
35,25	,	5570	,	-37738	,	-23216	,	103.3891	,	1
35,26	,	5586	,	-37744	,	-23211	,	100.12583	,	0
35,26	,	5618	,	-37750	,	-23214	,	92.03438	,	0
35,26	,	5634	,	-37746	,	-23219	,	79.99646	,	0
35,26	,	5650	,	-37745	,	-23223	,	65.435776	,	0
35,26	,	5682	,	-37759	,	-23220	,	49.949844	,	0
35,26	,	5698	,	-37746	,	-23211	,	34.904392	,	0
35,26	,	5714	,	-37744	,	-23217	,	21.431341	,	0
35,26	,	5730	,	-37756	,	-23224	,	10.383795	,	0
35,26	,	5762	,	-37760	,	-23221	,	2.0347977	,	0
35,26	,	5778	,	-37771	,	-23223	,	-3.9049006	,	0
35,26	,	5794	,	-37791	,	-23228	,	-8.0566025	,	0
35,26	,	5826	,	-37798	,	-23240	,	-11.199798	,	0
35,26	,	5842	,	-37816	,	-23251	,	-14.01501	,	0
35,26	,	5858	,	-37844	,	-23239	,	-17.012457	,	0
35,26	,	5890	,	-37836	,	-23230	,	-20.521729	,	0
35,26	,	5906	,	-37869	,	-23254	,	-24.51559	,	0
35,26	,	5922	,	-37885	,	-23257	,	-28.694298	,	0
35,26	,	5954	,	-37885	,	-23259	,	-32.677376	,	0
35,26	,	5970	,	-37898	,	-23263	,	-36.15225	,	0
35,26	,	5986	,	-37930	,	-23266	,	-39.10827	,	0
35,26	,	6002	,	-37921	,	-23272	,	-41.716618	,	0
35,26	,	6034	,	-37953	,	-23279	,	-43.98829	,	0
35,26	,	6050	,	-37958	,	-23286	,	-45.836285	,	0
35,26	,	6066	,	-37958	,	-23281	,	-47.157887	,	0
35,26	,	6098	,	-37987	,	-23296	,	-47.78412	,	0
35,26	,	6114	,	-38022	,	-23299	,	-47.861565	,	0
35,26	,	6130	,	-38015	,	-23311	,	-47.91571	,	0
35,26	,	6162	,	-38023	,	-23310	,	-48.14759	,	0
35,26	,	6178	,	-38053	,	-23307	,	-48.325806	,	0
35,26	,	6194	,	-37982	,	-23295	,	-47.993088	,	0
35,26	,	6226	,	-37942	,	-23281	,	-45.894814	,	2
35,26	,	6242	,	-37888	,	-23259	,	-40.077126	,	5
35,26	,	6257	,	-37835	,	-23254	,	-29.039747	,	11
35,26	,	6274	,	-37803	,	-23243	,	-12.471607	,	16
35,26	,	6305	,	-37773	,	-23238	,	8.562433	,	21
35,26	,	6337	,	-37730	,	-23242	,	54.79192	,	22
35,26	,	6370	,	-37698	,	-23238	,	75.02631	,	20
35,26	,	6386	,	-37697	,	-23207	,	90.98277	,	15
35,26	,	6402	,	-37682	,	-23207	,	101.68756	,	10
35,26	,	6434	,	-37686	,	-23208	,	106.65166	,	4
35,26	,	6450	,	-37699	,	-23214	,	105.83708	,	0
35,26	,	6466	,	-37714	,	-23212	,	99.506226	,	0
35,26	,	6497	,	-37721	,	-23214	,	88.252975	,	0
35,26	,	6513	,	-37724	,	-23214	,	73.1926	,	0
35,26	,	6530	,	-37708	,	-23211	,	56.015102	,	0
35,26	,	6545	,	-37722	,	-23217	,	38.702763	,	0
35,27	,	6578	,	-37721	,	-23217	,	22.923347	,	0
35,27	,	6593	,	-37724	,	-23220	,	9.686462	,	0
35,27	,	6609	,	-37724	,	-23219	,	-0.5383549	,	0
35,27	,	6641	,	-37747	,	-23217	,	-7.7718506	,	0
35,27	,	6658	,	-37753	,	-23221	,	-12.564404	,	0
35,27	,	6674	,	-37766	,	-23226	,	-15.731897	,	0
35,27	,	6705	,	-37771	,	-23236	,	-17.967678	,	0
35,27	,	6721	,	-37803	,	-23245	,	-19.736877	,	0
35,27	,	6737	,	-37817	,	-23247	,	-21.403164	,	0
35,27	,	6769	,	-37817	,	-23239	,	-23.28267	,	0
35,27	,	6785	,	-37813	,	-23253	,	-25.470592	,	0
35,27	,	6801	,	-37835	,	-23248	,	-27.758999	,	0
35,27	,	6817	,	-37859	,	-23256	,	-29.984047	,	0
35,27	,	6849	,	-37881	,	-23266	,	-32.32448	,	0
35,27	,	6865	,	-37891	,	-23273	,	-35.054768	,	0
35,27	,	6881	,	-37916	,	-23284	,	-38.220753	,	0
35,27	,	6913	,	-37924	,	-23264	,	-41.65927	,	0
35,27	,	6929	,	-37932	,	-23272	,	-45.04214	,	0
35,27	,	6945	,	-37960	,	-23283	,	-47.97406	,	0
35,27	,	6977	,	-37965	,	-23292	,	-50.243748	,	0
35,27	,	6993	,	-37981	,	-23294	,	-51.79475	,	0
35,27	,	7009	,	-37992	,	-23293	,	-52.58101	,	0
35,27	,	7041	,	-38007	,	-23289	,	-52.621777	,	0
35,27	,	7057	,	-37996	,	-23295	,	-51.92465	,	0
35,27	,	7073	,	-37952	,	-23281	,	-50.064545	,	1
35,27	,	7089	,	-37913	,	-23265	,	-45.91575	,	4
35,27	,	7137	,	-37805	,	-23254	,	-25.74114	,	12
35,27	,	7153	,	-37788	,	-23229	,	-8.691486	,	17
35,27	,	7185	,	-37760	,	-23232	,	11.924282	,	20
35,27	,	7201	,	-37753	,	-23223	,	33.900074	,	21
35,27	,	7217	,	-37724	,	-23211	,	54.68362	,	20
35,27	,	7249	,	-37706	,	-23203	,	72.20416	,	17
35,27	,	7265	,	-37685	,	-23201	,	85.279884	,	13
35,27	,	7281	,	-37663	,	-23201	,	93.56621	,	8
35,27	,	7297	,	-37679	,	-23196	,	97.19584	,	3
35,27	,	7329	,	-37699	,	-23206	,	96.220825	,	0
35,27	,	7345	,	-37697	,	-23202	,	90.55515	,	0
35,27	,	7361	,	-37710	,	-23212	,	80.5405	,	0
35,27	,	7393	,	-37719	,	-23214	,	67.12811	,	0
35,27	,	7409	,	-37719	,	-23222	,	51.623394	,	0
35,27	,	7425	,	-37729	,	-23204	,	35.488792	,	0
35,27	,	7457	,	-37728	,	-23200	,	20.107193	,	0
35,27	,	7473	,	-37715	,	-23222	,	6.6615143	,	0
35,27	,	7489	,	-37733	,	-23217	,	-3.942398	,	0
35,27	,	7537	,	-37744	,	-23224	,	-15.740963	,	0
35,27	,	7553	,	-37776	,	-23224	,	-17.942053	,	0
35,27	,	7569	,	-37784	,	-23238	,	-19.182909	,	0
35,28	,	7601	,	-37796	,	-23228	,	-20.544128	,	0
35,28	,	7617	,	-37807	,	-23239	,	-22.487747	,	0
35,28	,	7633	,	-37819	,	-23248	,	-25.008228	,	0
35,28	,	7665	,	-37834	,	-23249	,	-27.903347	,	0
35,28	,	7681	,	-37864	,	-23254	,	-31.020576	,	0
35,28	,	7697	,	-37880	,	-23250	,	-34.406406	,	0
35,28	,	7729	,	-37894	,	-23263	,	-38.120052	,	0
35,28	,	7744	,	-37913	,	-23266	,	-42.013546	,	0
35,28	,	7761	,	-37919	,	-23265	,	-45.77484	,	0
35,28	,	7792	,	-37924	,	-23276	,	-48.96669	,	0
35,28	,	7808	,	-37950	,	-23286	,	-51.166054	,	0
35,28	,	7825	,	-37949	,	-23284	,	-52.221493	,	0
35,28	,	7840	,	-37970	,	-23283	,	-52.204323	,	0
35,28	,	7873	,	-37983	,	-23286	,	-51.31377	,	0
35,28	,	7905	,	-38015	,	-23321	,	-48.449146	,	1
35,28	,	7937	,	-38000	,	-23312	,	-47.070377	,	1
35,28	,	7952	,	-37955	,	-23270	,	-45.2294	,	1
35,28	,	7968	,	-37912	,	-23242	,	-41.517494	,	3
35,28	,	8000	,	-37872	,	-23257	,	-34.326256	,	7
35,28	,	8017	,	-37829	,	-23245	,	-22.713705	,	11
35,28	,	8033	,	-37792	,	-23235	,	-6.7508125	,	15
35,28	,	8064	,	-37763	,	-23235	,	12.558664	,	19
35,28	,	8080	,	-37757	,	-23224	,	33.407547	,	20
35,28	,	8096	,	-37734	,	-23217	,	53.479675	,	20
35,28	,	8113	,	-37721	,	-23210	,	70.61432	,	17
35,28	,	8144	,	-37722	,	-23209	,	83.29012	,	12
35,28	,	8160	,	-37709	,	-23213	,	90.64925	,	7
35,28	,	8176	,	-37735	,	-23217	,	92.39948	,	1
35,28	,	8208	,	-37744	,	-23227	,	88.61308	,	0
35,28	,	8224	,	-37769	,	-23230	,	79.64478	,	0
35,28	,	8240	,	-37766	,	-23230	,	66.32898	,	0
35,28	,	8272	,	-37765	,	-23230	,	50.159847	,	0
35,28	,	8288	,	-37771	,	-23225	,	33.0935	,	0
35,28	,	8305	,	-37776	,	-23228	,	16.932682	,	0
35,28	,	8336	,	-37776	,	-23232	,	2.9349632	,	0
35,28	,	8352	,	-37784	,	-23230	,	-8.140317	,	0
35,28	,	8368	,	-37796	,	-23230	,	-16.043722	,	0
35,28	,	8384	,	-37787	,	-23235	,	-20.995583	,	0
35,28	,	8416	,	-37809	,	-23234	,	-23.453173	,	0
35,28	,	8432	,	-37831	,	-23251	,	-24.159016	,	0
35,28	,	8449	,	-37831	,	-23258	,	-24.106276	,	0
35,28	,	8480	,	-37849	,	-23235	,	-24.066551	,	0
35,28	,	8496	,	-37861	,	-23235	,	-24.429451	,	0
35,28	,	8512	,	-37872	,	-23251	,	-25.371683	,	0
35,28	,	8544	,	-37883	,	-23257	,	-26.879002	,	0
35,28	,	8560	,	-37896	,	-23263	,	-28.785725	,	0
35,29	,	8576	,	-37904	,	-23260	,	-30.874445	,	0
35,29	,	8592	,	-37918	,	-23266	,	-32.916977	,	0
35,29	,	8624	,	-37949	,	-23268	,	-34.82847	,	0
35,29	,	8640	,	-37960	,	-23276	,	-36.796257	,	0
35,29	,	8656	,	-37975	,	-23288	,	-39.023457	,	0
35,29	,	8704	,	-37987	,	-23296	,	-43.551773	,	0
35,29	,	8720	,	-38014	,	-23297	,	-45.095325	,	0
35,29	,	8752	,	-38026	,	-23314	,	-46.036903	,	0
35,29	,	8768	,	-38022	,	-23300	,	-46.5243	,	0
35,29	,	8784	,	-37998	,	-23292	,	-46.298645	,	0
35,29	,	8816	,	-37945	,	-23263	,	-44.387177	,	1
35,29	,	8832	,	-37886	,	-23253	,	-39.207268	,	5
35,29	,	8848	,	-37842	,	-23244	,	-29.219482	,	9
35,29	,	8864	,	-37810	,	-23239	,	-13.888926	,	15
35,29	,	8896	,	-37798	,	-23240	,	5.776264	,	19
35,29	,	8912	,	-37791	,	-23239	,	27.422695	,	21
35,29	,	8928	,	-37757	,	-23232	,	48.235188	,	20
35,29	,	8960	,	-37756	,	-23232	,	65.93869	,	17
35,29	,	8976	,	-37757	,	-23228	,	79.015594	,	13
35,29	,	8992	,	-37732	,	-23198	,	86.6162	,	7
35,29	,	9024	,	-37762	,	-23219	,	88.63312	,	2
35,29	,	9040	,	-37782	,	-23232	,	85.28647	,	0
35,29	,	9056	,	-37789	,	-23230	,	76.86294	,	0
35,29	,	9104	,	-37778	,	-23229	,	48.525517	,	0
35,29	,	9120	,	-37801	,	-23236	,	32.107204	,	0
35,29	,	9136	,	-37791	,	-23225	,	16.752222	,	0
35,29	,	9168	,	-37793	,	-23230	,	3.7730808	,	0
35,29	,	9184	,	-37809	,	-23225	,	-6.1374893	,	0
35,29	,	9200	,	-37818	,	-23230	,	-13.007437	,	0
35,29	,	9232	,	-37829	,	-23235	,	-17.432413	,	0
35,29	,	9248	,	-37832	,	-23233	,	-20.126194	,	0
35,29	,	9264	,	-37842	,	-23246	,	-21.65674	,	0
35,29	,	9296	,	-37855	,	-23247	,	-22.47038	,	0
35,29	,	9312	,	-37869	,	-23251	,	-23.0031	,	0
35,29	,	9328	,	-37874	,	-23251	,	-23.62285	,	0
35,29	,	9360	,	-37871	,	-23247	,	-24.41481	,	0
35,29	,	9376	,	-37881	,	-23254	,	-25.14834	,	0
35,29	,	9392	,	-37905	,	-23251	,	-25.650784	,	0
35,29	,	9407	,	-37913	,	-23258	,	-26.101635	,	0
35,29	,	9440	,	-37923	,	-23268	,	-26.787016	,	0
35,29	,	9472	,	-37944	,	-23278	,	-29.05294	,	0
35,29	,	9503	,	-37960	,	-23285	,	-30.440407	,	0
35,29	,	9520	,	-37971	,	-23266	,	-31.896114	,	0
35,29	,	9536	,	-37997	,	-23276	,	-33.45671	,	0
35,29	,	9567	,	-37989	,	-23291	,	-35.160652	,	0
35,30	,	9584	,	-38006	,	-23296	,	-36.825966	,	0
35,30	,	9600	,	-37984	,	-23280	,	-37.991108	,	0
35,30	,	9615	,	-37946	,	-23266	,	-37.830696	,	0
35,30	,	9647	,	-37883	,	-23248	,	-34.971863	,	2
35,30	,	9663	,	-37848	,	-23247	,	-27.863693	,	7
35,30	,	9680	,	-37793	,	-23227	,	-15.621931	,	12
35,30	,	9712	,	-37769	,	-23221	,	1.4697609	,	17
35,30	,	9727	,	-37761	,	-23207	,	21.8642	,	20
35,30	,	9744	,	-37722	,	-23202	,	43.115295	,	21
35,30	,	9775	,	-37704	,	-23201	,	62.83833	,	19
35,30	,	9791	,	-37706	,	-23195	,	79.21662	,	16
35,30	,	9807	,	-37682	,	-23185	,	90.90857	,	11
35,30	,	9839	,	-37673	,	-23190	,	97.27537	,	6
35,30	,	9879	,	-37704	,	-23192	,	94.74626	,	0
35,30	,	9887	,	-37705	,	-23196	,	86.52415	,	0
35,30	,	9919	,	-37714	,	-23196	,	74.4227	,	0
35,30	,	9935	,	-37711	,	-23194	,	59.656784	,	0
35,30	,	9951	,	-37713	,	-23201	,	43.80315	,	0
35,30	,	9983	,	-37704	,	-23198	,	28.479736	,	0
35,30	,	9999	,	-37712	,	-23198	,	15.045275	,	0
35,30	,	10015	,	-37707	,	-23217	,	4.3444786	,	0
35,30	,	10047	,	-37719	,	-23201	,	-3.365549	,	0
35,30	,	10063	,	-37720	,	-23185	,	-8.3297615	,	0
35,30	,	10079	,	-37735	,	-23208	,	-11.140825	,	0
35,30	,	10111	,	-37747	,	-23207	,	-12.586864	,	0
35,30	,	10127	,	-37759	,	-23207	,	-13.494986	,	0
35,30	,	10143	,	-37771	,	-23213	,	-14.529947	,	0
35,30	,	10159	,	-37775	,	-23217	,	-16.040968	,	0
35,30	,	10191	,	-37788	,	-23219	,	-18.048685	,	0
35,30	,	10207	,	-37818	,	-23224	,	-20.493063	,	0
35,30	,	10223	,	-37823	,	-23223	,	-23.450314	,	0
35,30	,	10271	,	-37850	,	-23231	,	-30.599236	,	0
35,30	,	10287	,	-37847	,	-23242	,	-34.11234	,	0
35,30	,	10319	,	-37870	,	-23249	,	-37.01728	,	0
35,30	,	10335	,	-37885	,	-23244	,	-39.111588	,	0
35,30	,	10351	,	-37908	,	-23254	,	-40.581238	,	0
35,30	,	10383	,	-37887	,	-23256	,	-41.631237	,	0
35,30	,	10399	,	-37926	,	-23264	,	-42.16571	,	0
35,30	,	10415	,	-37886	,	-23250	,	-41.943954	,	0
35,30	,	10431	,	-37840	,	-23241	,	-40.313545	,	1
35,30	,	10463	,	-37784	,	-23224	,	-35.83544	,	4
35,30	,	10479	,	-37736	,	-23204	,	-26.929266	,	8
35,30	,	10495	,	-37686	,	-23193	,	-12.811905	,	14
35,30	,	10527	,	-37655	,	-23185	,	6.100157	,	18
35,30	,	10543	,	-37615	,	-23187	,	28.277918	,	22
35,30	,	10559	,	-37586	,	-23170	,	51.569603	,	23
35,31	,	10591	,	-37580	,	-23149	,	73.651726	,	22
35,31	,	10607	,	-37549	,	-23145	,	92.32913	,	18
35,31	,	10623	,	-37538	,	-23151	,	106.01443	,	13
35,31	,	10639	,	-37534	,	-23135	,	113.94176	,	7
35,31	,	10671	,	-37529	,	-23148	,	115.94043	,	1
35,31	,	10687	,	-37536	,	-23155	,	112.30203	,	0
35,31	,	10703	,	-37551	,	-23146	,	103.66274	,	0
35,31	,	10735	,	-37558	,	-23151	,	90.858154	,	0
35,31	,	10751	,	-37551	,	-23148	,	75.044426	,	0
35,31	,	10767	,	-37544	,	-23146	,	57.84365	,	0
35,31	,	10799	,	-37559	,	-23144	,	41.004044	,	0
35,31	,	10815	,	-37549	,	-23150	,	25.853008	,	0
35,31	,	10831	,	-37550	,	-23153	,	13.217035	,	0
35,31	,	10863	,	-37560	,	-23153	,	3.514021	,	0
35,31	,	10879	,	-37565	,	-23158	,	-3.3390388	,	0
35,31	,	10894	,	-37588	,	-23158	,	-7.90656	,	0
35,31	,	10911	,	-37602	,	-23169	,	-11.072947	,	0
35,31	,	10943	,	-37603	,	-23171	,	-13.694126	,	0
35,31	,	10959	,	-37620	,	-23174	,	-16.237272	,	0
35,31	,	10975	,	-37619	,	-23170	,	-18.804981	,	0
35,31	,	11007	,	-37647	,	-23175	,	-21.367502	,	0
35,31	,	11023	,	-37659	,	-23189	,	-23.98636	,	0
35,31	,	11039	,	-37659	,	-23192	,	-26.7467	,	0
35,31	,	11087	,	-37699	,	-23200	,	-32.372322	,	0
35,31	,	11103	,	-37721	,	-23193	,	-35.225365	,	0
35,31	,	11134	,	-37730	,	-23204	,	-38.118565	,	0
35,31	,	11151	,	-37745	,	-23211	,	-40.918003	,	0
35,31	,	11167	,	-37761	,	-23225	,	-43.433693	,	0
35,31	,	11183	,	-37778	,	-23224	,	-45.551094	,	0
35,31	,	11215	,	-37784	,	-23225	,	-47.226677	,	0
35,31	,	11231	,	-37782	,	-23222	,	-48.293495	,	0
35,31	,	11247	,	-37718	,	-23202	,	-48.068134	,	0
35,31	,	11279	,	-37660	,	-23191	,	-44.982967	,	3
35,31	,	11294	,	-37606	,	-23177	,	-37.076042	,	7
35,31	,	11311	,	-37574	,	-23168	,	-23.24192	,	13
35,31	,	11343	,	-37539	,	-23162	,	-3.9927063	,	19
35,31	,	11358	,	-37491	,	-23143	,	18.89271	,	22
35,31	,	11375	,	-37463	,	-23138	,	43.203682	,	24
35,31	,	11406	,	-37458	,	-23136	,	66.62796	,	23
35,31	,	11422	,	-37442	,	-23126	,	86.78528	,	20
35,31	,	11439	,	-37405	,	-23122	,	101.82608	,	15
35,31	,	11454	,	-37407	,	-23117	,	111.00386	,	9
35,31	,	11486	,	-37407	,	-23120	,	114.31361	,	3
35,31	,	11503	,	-37420	,	-23119	,	111.94063	,	0
35,31	,	11518	,	-37432	,	-23126	,	104.231094	,	0
35,31	,	11551	,	-37422	,	-23130	,	91.948425	,	0
35,31	,	11566	,	-37421	,	-23135	,	76.506454	,	0
35,32	,	11582	,	-37420	,	-23138	,	59.746574	,	0
35,32	,	11614	,	-37433	,	-23132	,	43.32907	,	0
35,32	,	11630	,	-37433	,	-23114	,	28.369629	,	0
35,32	,	11646	,	-37449	,	-23119	,	15.4575405	,	0
35,32	,	11662	,	-37458	,	-23136	,	4.737297	,	0
35,32	,	11694	,	-37482	,	-23141	,	-4.035635	,	0
35,32	,	11710	,	-37485	,	-23142	,	-11.3081045	,	0
35,32	,	11742	,	-37504	,	-23141	,	-17.455399	,	0
35,32	,	11759	,	-37511	,	-23151	,	-22.680025	,	0
35,32	,	11774	,	-37542	,	-23157	,	-27.154549	,	0
35,32	,	11806	,	-37552	,	-23157	,	-31.153812	,	0
35,32	,	11822	,	-37559	,	-23168	,	-34.877995	,	0
35,32	,	11854	,	-37590	,	-23182	,	-41.088295	,	0
35,32	,	11886	,	-37608	,	-23186	,	-43.34423	,	0
35,32	,	11902	,	-37621	,	-23187	,	-45.08293	,	0
35,32	,	11918	,	-37651	,	-23184	,	-46.472744	,	0
35,32	,	11950	,	-37654	,	-23197	,	-47.735657	,	0
35,32	,	11966	,	-37670	,	-23203	,	-48.936203	,	0
35,32	,	11982	,	-37693	,	-23205	,	-49.98042	,	0
35,32	,	12014	,	-37716	,	-23209	,	-50.9078	,	0
35,32	,	12030	,	-37717	,	-23210	,	-51.846046	,	0
35,32	,	12046	,	-37703	,	-23185	,	-52.54975	,	0
35,32	,	12078	,	-37645	,	-23180	,	-51.992916	,	0
35,32	,	12094	,	-37586	,	-23181	,	-48.353973	,	3
35,32	,	12110	,	-37540	,	-23161	,	-39.717857	,	8
35,32	,	12126	,	-37503	,	-23151	,	-25.184412	,	14
35,32	,	12158	,	-37467	,	-23140	,	-5.392565	,	19
35,32	,	12174	,	-37443	,	-23132	,	17.78302	,	23
35,32	,	12190	,	-37414	,	-23122	,	41.85491	,	24
35,32	,	12222	,	-37402	,	-23121	,	64.31451	,	22
35,32	,	12254	,	-37387	,	-23118	,	96.29797	,	13
35,32	,	12286	,	-37413	,	-23118	,	103.20062	,	6
35,32	,	12302	,	-37418	,	-23117	,	103.19359	,	0
35,32	,	12318	,	-37422	,	-23129	,	96.46135	,	0
35,32	,	12334	,	-37421	,	-23130	,	84.1801	,	0
35,32	,	12366	,	-37421	,	-23132	,	68.29549	,	0
35,32	,	12382	,	-37422	,	-23128	,	50.97618	,	0
35,32	,	12398	,	-37443	,	-23132	,	34.053753	,	0
35,32	,	12430	,	-37434	,	-23131	,	18.72916	,	0
35,32	,	12446	,	-37446	,	-23130	,	5.7349167	,	0
35,32	,	12462	,	-37456	,	-23136	,	-4.560588	,	0
35,32	,	12494	,	-37466	,	-23143	,	-12.241619	,	0
35,32	,	12510	,	-37483	,	-23156	,	-17.746788	,	0
35,32	,	12526	,	-37487	,	-23164	,	-21.645489	,	0
35,32	,	12558	,	-37508	,	-23141	,	-24.465406	,	0
35,33	,	12574	,	-37549	,	-23142	,	-26.809097	,	0
35,33	,	12590	,	-37549	,	-23165	,	-29.41219	,	0
35,33	,	12606	,	-37584	,	-23169	,	-32.746315	,	0
35,33	,	12638	,	-37585	,	-23173	,	-36.817116	,	0
35,33	,	12654	,	-37601	,	-23180	,	-41.258083	,	0
35,33	,	12670	,	-37623	,	-23181	,	-45.524826	,	0
35,33	,	12702	,	-37632	,	-23186	,	-49.21167	,	0
35,33	,	12718	,	-37647	,	-23197	,	-52.083527	,	0
35,33	,	12734	,	-37677	,	-23204	,	-54.059235	,	0
35,33	,	12766	,	-37689	,	-23209	,	-55.3297	,	0
35,33	,	12782	,	-37703	,	-23212	,	-56.16313	,	0
35,33	,	12798	,	-37722	,	-23230	,	-56.670822	,	0
35,33	,	12830	,	-37732	,	-23234	,	-56.862797	,	0
35,33	,	12846	,	-37743	,	-23227	,	-56.68824	,	0
35,33	,	12861	,	-37752	,	-23226	,	-56.029144	,	0
35,33	,	12878	,	-37713	,	-23221	,	-54.5498	,	1
35,33	,	12910	,	-37648	,	-23202	,	-51.19371	,	3
35,33	,	12925	,	-37622	,	-23181	,	-44.277542	,	6
35,33	,	12941	,	-37580	,	-23182	,	-32.63753	,	11
35,33	,	12974	,	-37551	,	-23170	,	-16.395746	,	16
35,33	,	12990	,	-37529	,	-23166	,	3.206316	,	19
35,33	,	13006	,	-37504	,	-23167	,	24.232666	,	21
35,33	,	13054	,	-37491	,	-23139	,	62.02661	,	17
35,33	,	13070	,	-37465	,	-23126	,	75.18351	,	13
35,33	,	13102	,	-37474	,	-23144	,	83.23369	,	8
35,33	,	13117	,	-37511	,	-23156	,	85.87707	,	2
35,33	,	13134	,	-37514	,	-23155	,	82.82727	,	0
35,33	,	13150	,	-37503	,	-23146	,	74.36217	,	0
35,33	,	13182	,	-37514	,	-23151	,	61.83603	,	0
35,33	,	13198	,	-37516	,	-23155	,	47.13854	,	0
35,33	,	13213	,	-37521	,	-23150	,	32.014225	,	0
35,33	,	13246	,	-37529	,	-23161	,	17.831089	,	0
35,33	,	13262	,	-37523	,	-23158	,	5.5518227	,	0
35,33	,	13277	,	-37548	,	-23157	,	-4.288206	,	0
35,33	,	13309	,	-37541	,	-23165	,	-11.637015	,	0
35,33	,	13325	,	-37566	,	-23168	,	-16.807123	,	0
35,33	,	13342	,	-37586	,	-23178	,	-20.385221	,	0
35,33	,	13357	,	-37609	,	-23180	,	-23.211472	,	0
35,33	,	13389	,	-37630	,	-23183	,	-26.108704	,	0
35,33	,	13406	,	-37641	,	-23177	,	-29.568264	,	0
35,33	,	13421	,	-37659	,	-23196	,	-33.630753	,	0
35,33	,	13453	,	-37671	,	-23202	,	-37.999767	,	0
35,33	,	13469	,	-37698	,	-23219	,	-42.315437	,	0
35,33	,	13485	,	-37708	,	-23225	,	-46.335655	,	0
35,33	,	13517	,	-37732	,	-23229	,	-49.90961	,	0
35,33	,	13533	,	-37761	,	-23249	,	-53.002594	,	0
35,33	,	13549	,	-37789	,	-23237	,	-55.815285	,	0
35,34	,	13581	,	-37829	,	-23247	,	-58.743576	,	0
35,34	,	13597	,	-37876	,	-23289	,	-62.30886	,	0
35,34	,	13613	,	-37926	,	-23312	,	-67.115944	,	0
35,34	,	13629	,	-37975	,	-23329	,	-73.6669	,	0
35,34	,	13661	,	-37973	,	-23327	,	-81.88548	,	0
35,34	,	13677	,	-37979	,	-23328	,	-90.60337	,	0
35,34	,	13693	,	-37945	,	-23325	,	-97.6781	,	0
35,34	,	13725	,	-37905	,	-23313	,	-100.59099	,	0
35,34	,	13741	,	-37888	,	-23299	,	-97.22302	,	3
35,34	,	13773	,	-37857	,	-23300	,	-86.72377	,	10
35,34	,	13789	,	-37839	,	-23302	,	-69.7578	,	16
35,34	,	13805	,	-37852	,	-23308	,	-48.251617	,	21
35,34	,	13821	,	-37860	,	-23320	,	-25.138317	,	23
35,34	,	13853	,	-37848	,	-23331	,	-3.5739632	,	21
35,34	,	13869	,	-37877	,	-23337	,	14.00153	,	17
35,34	,	13885	,	-37890	,	-23349	,	26.009476	,	12
35,34	,	13917	,	-37915	,	-23361	,	31.608944	,	5
35,34	,	13933	,	-37940	,	-23369	,	30.750757	,	0
35,34	,	13949	,	-37988	,	-23394	,	23.977665	,	0
35,34	,	13981	,	-38008	,	-23404	,	12.175482	,	0
35,34	,	13997	,	-38030	,	-23424	,	-3.3108416	,	0
35,34	,	14013	,	-38069	,	-23455	,	-20.719799	,	0
35,34	,	14045	,	-38082	,	-23469	,	-38.308376	,	0
35,34	,	14061	,	-38134	,	-23478	,	-54.684383	,	0
35,34	,	14077	,	-38147	,	-23489	,	-68.95878	,	0
35,34	,	14093	,	-38190	,	-23504	,	-80.6898	,	0
35,34	,	14125	,	-38211	,	-23514	,	-89.740906	,	0
35,34	,	14141	,	-38236	,	-23521	,	-96.17685	,	0
35,34	,	14157	,	-38263	,	-23542	,	-100.13602	,	0
35,34	,	14189	,	-38296	,	-23547	,	-101.90268	,	0
35,34	,	14221	,	-38329	,	-23573	,	-100.45229	,	1
35,34	,	14253	,	-38343	,	-23569	,	-97.725815	,	2
35,34	,	14269	,	-38352	,	-23582	,	-93.88226	,	3
35,34	,	14285	,	-38391	,	-23589	,	-89.15787	,	4
35,34	,	14317	,	-38413	,	-23597	,	-84.0965	,	5
35,34	,	14333	,	-38443	,	-23609	,	-79.482216	,	4
35,34	,	14349	,	-38445	,	-23622	,	-75.85317	,	3
35,34	,	14365	,	-38493	,	-23622	,	-73.317825	,	2
35,34	,	14397	,	-38490	,	-23633	,	-71.801636	,	1
35,34	,	14413	,	-38515	,	-23643	,	-71.062065	,	0
35,34	,	14429	,	-38527	,	-23663	,	-70.65039	,	0
35,34	,	14461	,	-38513	,	-23638	,	-70.001144	,	0
35,34	,	14477	,	-38484	,	-23619	,	-68.20578	,	1
35,34	,	14493	,	-38442	,	-23611	,	-63.91558	,	4
35,34	,	14525	,	-38394	,	-23606	,	-55.72224	,	8
35,34	,	14541	,	-38362	,	-23591	,	-42.73065	,	12
35,34	,	14557	,	-38352	,	-23596	,	-25.18806	,	17
35,35	,	14573	,	-38327	,	-23580	,	-4.662361	,	20
35,35	,	14621	,	-38291	,	-23586	,	36.590515	,	19
35,35	,	14637	,	-38299	,	-23573	,	53.496227	,	16
35,35	,	14669	,	-38293	,	-23579	,	65.889755	,	12
35,35	,	14684	,	-38317	,	-23577	,	72.765205	,	6
35,35	,	14701	,	-38311	,	-23578	,	73.730804	,	0
35,35	,	14733	,	-38327	,	-23589	,	69.125336	,	0
35,35	,	14749	,	-38319	,	-23584	,	60.01398	,	0
35,35	,	14765	,	-38318	,	-23581	,	48.00625	,	0
35,35	,	14797	,	-38327	,	-23581	,	34.885693	,	0
35,35	,	14813	,	-38331	,	-23577	,	22.125063	,	0
35,35	,	14829	,	-38345	,	-23585	,	10.652599	,	0
35,35	,	14845	,	-38345	,	-23585	,	0.92562103	,	0
35,35	,	14877	,	-38349	,	-23593	,	-6.86292	,	0
35,35	,	14893	,	-38363	,	-23603	,	-12.691004	,	0
35,35	,	14908	,	-38362	,	-23594	,	-16.751125	,	0
35,35	,	14940	,	-38370	,	-23606	,	-19.331228	,	0
35,35	,	14957	,	-38385	,	-23603	,	-20.754519	,	0
35,35	,	14973	,	-38399	,	-23593	,	-21.493423	,	0
35,35	,	15021	,	-38422	,	-23616	,	-22.88501	,	0
35,35	,	15037	,	-38447	,	-23618	,	-24.150122	,	0
35,35	,	15069	,	-38465	,	-23622	,	-26.122364	,	0
35,35	,	15085	,	-38468	,	-23629	,	-28.915403	,	0
35,35	,	15100	,	-38482	,	-23632	,	-32.262226	,	0
35,35	,	15116	,	-38505	,	-23652	,	-35.71592	,	0
35,35	,	15148	,	-38526	,	-23649	,	-39.049896	,	0
35,35	,	15164	,	-38533	,	-23646	,	-42.229027	,	0
35,35	,	15180	,	-38536	,	-23650	,	-45.06766	,	0
35,35	,	15212	,	-38514	,	-23632	,	-46.997646	,	0
35,35	,	15229	,	-38461	,	-23626	,	-46.911713	,	0
35,35	,	15244	,	-38420	,	-23608	,	-43.250458	,	3
35,35	,	15276	,	-38386	,	-23600	,	-34.726116	,	8
35,35	,	15292	,	-38358	,	-23597	,	-21.142782	,	13
35,35	,	15308	,	-38338	,	-23592	,	-3.559412	,	17
35,35	,	15340	,	-38313	,	-23586	,	16.120407	,	19
35,35	,	15356	,	-38306	,	-23578	,	35.702713	,	19
35,35	,	15372	,	-38285	,	-23575	,	53.15212	,	17
35,35	,	15388	,	-38289	,	-23581	,	66.89272	,	13
35,35	,	15420	,	-38290	,	-23573	,	75.86451	,	8
35,35	,	15436	,	-38293	,	-23591	,	79.502884	,	3
35,35	,	15452	,	-38311	,	-23586	,	77.78317	,	0
35,35	,	15484	,	-38304	,	-23572	,	71.209694	,	0
35,35	,	15500	,	-38306	,	-23568	,	60.866165	,	0
35,35	,	15516	,	-38307	,	-23589	,	48.303104	,	0
35,35	,	15548	,	-38322	,	-23581	,	35.05228	,	0
35,35	,	15564	,	-38313	,	-23578	,	22.296785	,	0
35,36	,	15580	,	-38319	,	-23585	,	10.94301	,	0
35,36	,	15596	,	-38327	,	-23587	,	1.6126747	,	0
35,36	,	15628	,	-38359	,	-23591	,	-5.642438	,	0
35,36	,	15644	,	-38348	,	-23596	,	-11.291339	,	0
35,36	,	15660	,	-38349	,	-23599	,	-15.695249	,	0
35,36	,	15692	,	-38358	,	-23594	,	-18.838322	,	0
35,36	,	15708	,	-38379	,	-23604	,	-20.792007	,	0
35,36	,	15740	,	-38370	,	-23606	,	-21.905449	,	0
35,36	,	15756	,	-38386	,	-23603	,	-22.475655	,	0
35,36	,	15788	,	-38425	,	-23613	,	-23.26008	,	0
35,36	,	15820	,	-38423	,	-23612	,	-24.369343	,	0
35,36	,	15836	,	-38440	,	-23624	,	-26.064163	,	0
35,36	,	15852	,	-38456	,	-23623	,	-28.093956	,	0
35,36	,	15884	,	-38468	,	-23630	,	-30.312977	,	0
35,36	,	15900	,	-38477	,	-23632	,	-32.615753	,	0
35,36	,	15916	,	-38489	,	-23636	,	-34.817093	,	0
35,36	,	15948	,	-38499	,	-23664	,	-36.71239	,	0
35,36	,	15964	,	-38492	,	-23649	,	-38.06906	,	0
35,36	,	15980	,	-38455	,	-23618	,	-38.34089	,	0
35,36	,	16012	,	-38409	,	-23599	,	-36.40724	,	1
35,36	,	16028	,	-38323	,	-23587	,	-30.657438	,	5
35,36	,	16044	,	-38289	,	-23553	,	-19.554762	,	11
35,36	,	16060	,	-38272	,	-23578	,	-2.7882538	,	16
35,36	,	16092	,	-38247	,	-23561	,	18.065254	,	20
35,36	,	16108	,	-38229	,	-23565	,	40.28502	,	22
35,36	,	16124	,	-38199	,	-23559	,	61.172165	,	20
35,36	,	16156	,	-38207	,	-23552	,	78.59804	,	17
35,36	,	16188	,	-38194	,	-23556	,	97.25668	,	6
35,36	,	16220	,	-38224	,	-23566	,	97.28233	,	0
35,36	,	16236	,	-38234	,	-23556	,	91.342636	,	0
35,36	,	16252	,	-38218	,	-23558	,	80.243576	,	0
35,36	,	16284	,	-38208	,	-23554	,	65.68438	,	0
35,36	,	16300	,	-38206	,	-23549	,	49.95175	,	0
35,36	,	16316	,	-38225	,	-23558	,	34.978153	,	0
35,36	,	16332	,	-38218	,	-23558	,	21.829683	,	0
35,36	,	16364	,	-38246	,	-23572	,	10.855949	,	0
35,36	,	16380	,	-38239	,	-23549	,	1.9595852	,	0
35,36	,	16396	,	-38260	,	-23544	,	-5.1464844	,	0
35,36	,	16428	,	-38263	,	-23562	,	-10.769177	,	0
35,36	,	16444	,	-38300	,	-23564	,	-15.330365	,	0
35,36	,	16460	,	-38306	,	-23583	,	-19.422369	,	0
35,36	,	16491	,	-38302	,	-23586	,	-23.427225	,	0
35,36	,	16507	,	-38335	,	-23586	,	-27.265259	,	0
35,36	,	16524	,	-38343	,	-23590	,	-30.816172	,	0
35,36	,	16556	,	-38351	,	-23591	,	-34.087437	,	0
35,37	,	16588	,	-38382	,	-23607	,	-39.631496	,	0
35,37	,	16604	,	-38394	,	-23609	,	-41.8615	,	0
35,37	,	16636	,	-38406	,	-23611	,	-43.543648	,	0
35,37	,	16652	,	-38424	,	-23621	,	-44.57305	,	0
35,37	,	16668	,	-38429	,	-23627	,	-45.016895	,	0
35,37	,	16700	,	-38430	,	-23624	,	-44.904392	,	0
35,37	,	16715	,	-38458	,	-23627	,	-44.206856	,	0
35,37	,	16732	,	-38420	,	-23613	,	-42.892982	,	1
35,37	,	16764	,	-38374	,	-23599	,	-40.392307	,	2
35,37	,	16779	,	-38325	,	-23588	,	-35.306564	,	5
35,37	,	16795	,	-38277	,	-23573	,	-26.164635	,	9
35,37	,	16812	,	-38246	,	-23568	,	-12.334415	,	13
35,37	,	16843	,	-38208	,	-23569	,	5.616329	,	17
35,37	,	16860	,	-38197	,	-23565	,	26.073372	,	20
35,37	,	16875	,	-38176	,	-23550	,	46.789364	,	20
35,37	,	16908	,	-38165	,	-23529	,	65.43921	,	18
35,37	,	16923	,	-38143	,	-23531	,	80.21087	,	14
35,37	,	16939	,	-38149	,	-23534	,	90.049	,	9
35,37	,	16987	,	-38185	,	-23539	,	93.02572	,	0
35,37	,	17003	,	-38174	,	-23535	,	85.98239	,	0
35,37	,	17036	,	-38175	,	-23533	,	74.27725	,	0
35,37	,	17052	,	-38180	,	-23534	,	59.660915	,	0
35,37	,	17067	,	-38180	,	-23546	,	44.00991	,	0
35,37	,	17083	,	-38185	,	-23536	,	28.907703	,	0
35,37	,	17115	,	-38205	,	-23547	,	15.422323	,	0
35,37	,	17131	,	-38197	,	-23555	,	4.042017	,	0
35,37	,	17148	,	-38229	,	-23549	,	-5.1432476	,	0
35,37	,	17179	,	-38220	,	-23554	,	-12.323645	,	0
35,37	,	17195	,	-38232	,	-23560	,	-17.762154	,	0
35,37	,	17212	,	-38255	,	-23570	,	-21.704954	,	0
35,37	,	17243	,	-38270	,	-23572	,	-24.62003	,	0
35,37	,	17259	,	-38262	,	-23574	,	-27.00066	,	0
35,37	,	17275	,	-38294	,	-23577	,	-29.023092	,	0
35,37	,	17307	,	-38301	,	-23581	,	-30.795559	,	0
35,37	,	17323	,	-38312	,	-23597	,	-32.498238	,	0
35,37	,	17339	,	-38318	,	-23595	,	-34.14018	,	0
35,37	,	17355	,	-38343	,	-23607	,	-35.612473	,	0
35,37	,	17387	,	-38364	,	-23609	,	-36.991436	,	0
35,37	,	17403	,	-38384	,	-23596	,	-38.56793	,	0
35,37	,	17419	,	-38398	,	-23606	,	-40.57846	,	0
35,37	,	17451	,	-38435	,	-23622	,	-43.108772	,	0
35,37	,	17467	,	-38441	,	-23623	,	-46.189896	,	0
35,37	,	17483	,	-38439	,	-23629	,	-49.56682	,	0
35,37	,	17515	,	-38407	,	-23615	,	-52.318104	,	0
35,37	,	17532	,	-38360	,	-23602	,	-52.831436	,	0
35,37	,	17547	,	-38320	,	-23587	,	-49.251633	,	3
35,38	,	17579	,	-38273	,	-23570	,	-40.246624	,	9
35,38	,	17595	,	-38251	,	-23561	,	-25.629314	,	14
35,38	,	17611	,	-38226	,	-23561	,	-6.539688	,	19
35,38	,	17627	,	-38209	,	-23557	,	14.881281	,	21
35,38	,	17659	,	-38200	,	-23555	,	36.11487	,	21
35,38	,	17675	,	-38175	,	-23534	,	54.870144	,	18
35,38	,	17691	,	-38162	,	-23538	,	69.593056	,	14
35,38	,	17723	,	-38151	,	-23531	,	79.584	,	9
35,38	,	17739	,	-38150	,	-23533	,	84.71639	,	5
35,38	,	17771	,	-38169	,	-23532	,	85.09532	,	0
35,38	,	17787	,	-38173	,	-23548	,	80.88239	,	0
35,38	,	17803	,	-38190	,	-23543	,	72.44862	,	0
35,38	,	17819	,	-38170	,	-23541	,	60.68635	,	0
35,38	,	17851	,	-38187	,	-23546	,	47.049816	,	0
35,38	,	17867	,	-38204	,	-23567	,	33.003468	,	0
35,38	,	17883	,	-38197	,	-23547	,	19.551226	,	0
35,38	,	17915	,	-38210	,	-23528	,	7.428152	,	0
35,38	,	17931	,	-38210	,	-23553	,	-2.7815628	,	0
35,38	,	17947	,	-38233	,	-23559	,	-10.837562	,	0
35,38	,	17979	,	-38261	,	-23567	,	-17.015255	,	0
35,38	,	17995	,	-38262	,	-23561	,	-21.966137	,	0
35,38	,	18011	,	-38274	,	-23567	,	-26.17664	,	0
35,38	,	18027	,	-38295	,	-23564	,	-29.796476	,	0
35,38	,	18059	,	-38306	,	-23575	,	-32.940342	,	0
35,38	,	18075	,	-38307	,	-23572	,	-35.67075	,	0
35,38	,	18091	,	-38328	,	-23576	,	-37.864525	,	0
35,38	,	18123	,	-38331	,	-23592	,	-39.400627	,	0
35,38	,	18155	,	-38381	,	-23590	,	-40.967926	,	0
35,38	,	18187	,	-38392	,	-23593	,	-41.73625	,	0
35,38	,	18203	,	-38404	,	-23603	,	-42.86321	,	0
35,38	,	18219	,	-38408	,	-23607	,	-44.19313	,	0
35,38	,	18251	,	-38429	,	-23608	,	-45.385002	,	0
35,38	,	18267	,	-38461	,	-23632	,	-46.316418	,	0
35,38	,	18283	,	-38479	,	-23644	,	-47.27959	,	0
35,38	,	18299	,	-38479	,	-23629	,	-48.55464	,	0
35,38	,	18331	,	-38483	,	-23611	,	-49.911003	,	0
35,38	,	18347	,	-38454	,	-23620	,	-50.577305	,	0
35,38	,	18363	,	-38362	,	-23585	,	-49.07694	,	1
35,38	,	18395	,	-38320	,	-23573	,	-43.201263	,	5
35,38	,	18411	,	-38300	,	-23573	,	-31.315678	,	11
35,38	,	18427	,	-38268	,	-23561	,	-13.733334	,	17
35,38	,	18458	,	-38258	,	-23549	,	7.5421333	,	21
35,38	,	18474	,	-38224	,	-23549	,	29.85525	,	22
35,38	,	18491	,	-38214	,	-23535	,	50.722168	,	20
35,38	,	18523	,	-38195	,	-23531	,	68.23687	,	17
35,38	,	18555	,	-38201	,	-23530	,	88.552765	,	7
35,38	,	18571	,	-38235	,	-23545	,	90.103264	,	1
35,39	,	18602	,	-38236	,	-23544	,	85.57204	,	0
35,39	,	18619	,	-38228	,	-23542	,	75.54871	,	0
35,39	,	18635	,	-38238	,	-23542	,	61.63539	,	0
35,39	,	18667	,	-38239	,	-23541	,	45.855125	,	0
35,39	,	18683	,	-38238	,	-23534	,	30.053673	,	0
35,39	,	18699	,	-38243	,	-23538	,	15.70878	,	0
35,39	,	18731	,	-38232	,	-23537	,	3.8528118	,	0
35,39	,	18746	,	-38241	,	-23542	,	-4.933654	,	0
35,39	,	18762	,	-38270	,	-23556	,	-10.703871	,	0
35,39	,	18794	,	-38287	,	-23566	,	-14.307339	,	0
35,39	,	18810	,	-38272	,	-23545	,	-16.799994	,	0
35,39	,	18827	,	-38305	,	-23539	,	-18.769375	,	0
35,39	,	18842	,	-38306	,	-23563	,	-20.528986	,	0
35,39	,	18874	,	-38330	,	-23575	,	-22.396376	,	0
35,39	,	18890	,	-38347	,	-23573	,	-24.631172	,	0
35,39	,	18906	,	-38377	,	-23584	,	-27.48043	,	0
35,39	,	18938	,	-38396	,	-23583	,	-31.146145	,	0
35,39	,	18970	,	-38407	,	-23591	,	-40.053646	,	0
35,39	,	19002	,	-38432	,	-23603	,	-44.13338	,	0
35,39	,	19018	,	-38450	,	-23604	,	-47.478027	,	0
35,39	,	19034	,	-38461	,	-23605	,	-50.105263	,	0
35,39	,	19051	,	-38476	,	-23621	,	-52.038902	,	0
35,39	,	19083	,	-38492	,	-23618	,	-53.26541	,	0
35,39	,	19098	,	-38499	,	-23628	,	-53.80636	,	0
35,39	,	19115	,	-38513	,	-23627	,	-53.679535	,	0
35,39	,	19146	,	-38518	,	-23633	,	-52.87992	,	0
35,39	,	19163	,	-38529	,	-23633	,	-51.40879	,	1
35,39	,	19179	,	-38523	,	-23624	,	-49.252445	,	2
35,39	,	19210	,	-38460	,	-23602	,	-46.011494	,	3
35,39	,	19226	,	-38412	,	-23598	,	-40.448395	,	5
35,39	,	19242	,	-38375	,	-23574	,	-31.029963	,	9
35,39	,	19274	,	-38343	,	-23584	,	-17.101742	,	13
35,39	,	19290	,	-38322	,	-23573	,	0.64481163	,	17
35,39	,	19306	,	-38296	,	-23544	,	20.504755	,	19
35,39	,	19322	,	-38282	,	-23532	,	40.362755	,	19
35,39	,	19354	,	-38283	,	-23546	,	58.129642	,	17
35,39	,	19370	,	-38256	,	-23534	,	72.06194	,	13
35,39	,	19387	,	-38251	,	-23545	,	81.19406	,	9
35,39	,	19418	,	-38264	,	-23539	,	85.29926	,	4
35,39	,	19434	,	-38275	,	-23546	,	84.39183	,	0
35,39	,	19450	,	-38285	,	-23541	,	78.652695	,	0
35,39	,	19482	,	-38293	,	-23546	,	68.69656	,	0
35,39	,	19498	,	-38286	,	-23538	,	55.687122	,	0
35,39	,	19514	,	-38274	,	-23543	,	41.290203	,	0
35,39	,	19546	,	-38284	,	-23544	,	27.316025	,	0
35,39	,	19562	,	-38284	,	-23544	,	15.119951	,	0
35,40	,	19578	,	-38303	,	-23544	,	5.2888355	,	0
35,40	,	19594	,	-38311	,	-23540	,	-2.2796783	,	0
35,40	,	19626	,	-38295	,	-23553	,	-7.9435415	,	0
35,40	,	19642	,	-38317	,	-23549	,	-11.904374	,	0
35,40	,	19658	,	-38333	,	-23562	,	-14.45627	,	0
35,40	,	19690	,	-38342	,	-23558	,	-16.226772	,	0
35,40	,	19706	,	-38357	,	-23569	,	-17.841587	,	0
35,40	,	19722	,	-38366	,	-23556	,	-19.670319	,	0
35,40	,	19754	,	-38368	,	-23563	,	-21.792013	,	0
35,40	,	19770	,	-38399	,	-23591	,	-24.106474	,	0
35,40	,	19786	,	-38414	,	-23591	,	-26.648996	,	0
35,40	,	19818	,	-38435	,	-23576	,	-29.617691	,	0
35,40	,	19834	,	-38443	,	-23565	,	-33.068726	,	0
35,40	,	19850	,	-38449	,	-23593	,	-36.72905	,	0
35,40	,	19882	,	-38474	,	-23602	,	-40.14688	,	0
35,40	,	19898	,	-38494	,	-23610	,	-43.08628	,	0
35,40	,	19914	,	-38510	,	-23611	,	-45.62546	,	0
35,40	,	19946	,	-38505	,	-23620	,	-47.781193	,	0
35,40	,	19962	,	-38523	,	-23624	,	-49.277206	,	0
35,40	,	19978	,	-38540	,	-23618	,	-49.86515	,	0
35,40	,	20010	,	-38553	,	-23629	,	-49.645515	,	0
35,40	,	20026	,	-38555	,	-23639	,	-48.85723	,	0
35,40	,	20041	,	-38557	,	-23621	,	-47.54432	,	1
35,40	,	20058	,	-38503	,	-23616	,	-45.288216	,	2
35,40	,	20106	,	-38414	,	-23578	,	-32.813774	,	8
35,40	,	20122	,	-38381	,	-23576	,	-20.165213	,	12
35,40	,	20154	,	-38330	,	-23568	,	-3.293766	,	16
35,40	,	20170	,	-38326	,	-23564	,	16.549984	,	19
35,40	,	20186	,	-38299	,	-23557	,	37.390816	,	20
35,40	,	20217	,	-38294	,	-23548	,	56.893612	,	19
35,40	,	20234	,	-38282	,	-23524	,	72.97734	,	16
35,40	,	20250	,	-38278	,	-23529	,	84.1953	,	11
35,40	,	20282	,	-38277	,	-23534	,	89.85701	,	5
35,40	,	20298	,	-38289	,	-23545	,	89.90944	,	0
35,40	,	20314	,	-38280	,	-23536	,	84.80244	,	0
35,40	,	20330	,	-38301	,	-23544	,	75.45925	,	0
35,40	,	20362	,	-38279	,	-23531	,	63.168526	,	0
35,40	,	20378	,	-38289	,	-23544	,	49.474457	,	0
35,40	,	20393	,	-38300	,	-23526	,	35.834145	,	0
35,40	,	20425	,	-38290	,	-23536	,	23.253887	,	0
35,40	,	20441	,	-38292	,	-23536	,	12.438969	,	0
35,40	,	20457	,	-38306	,	-23536	,	3.8403244	,	0
35,40	,	20489	,	-38323	,	-23550	,	-2.6322966	,	0
35,40	,	20521	,	-38342	,	-23551	,	-11.352301	,	0
35,40	,	20537	,	-38336	,	-23550	,	-14.515258	,	0
35,40	,	20569	,	-38353	,	-23555	,	-17.14146	,	0
35,41	,	20586	,	-38362	,	-23564	,	-19.304083	,	0
35,41	,	20602	,	-38367	,	-23565	,	-21.12395	,	0
35,41	,	20633	,	-38391	,	-23564	,	-22.741753	,	0
35,41	,	20650	,	-38390	,	-23578	,	-24.321814	,	0
35,41	,	20665	,	-38401	,	-23572	,	-25.925941	,	0
35,41	,	20697	,	-38420	,	-23591	,	-27.485287	,	0
35,41	,	20713	,	-38445	,	-23592	,	-29.088026	,	0
35,41	,	20729	,	-38449	,	-23582	,	-30.987627	,	0
35,41	,	20761	,	-38466	,	-23581	,	-33.258606	,	0
35,41	,	20778	,	-38474	,	-23593	,	-35.706642	,	0
35,41	,	20793	,	-38495	,	-23607	,	-38.0871	,	0
35,41	,	20809	,	-38524	,	-23605	,	-40.350742	,	0
35,41	,	20841	,	-38535	,	-23608	,	-42.676033	,	0
35,41	,	20857	,	-38541	,	-23622	,	-45.123283	,	0
35,41	,	20873	,	-38561	,	-23626	,	-47.434868	,	0
35,41	,	20921	,	-38530	,	-23616	,	-50.579453	,	0
35,41	,	20937	,	-38465	,	-23589	,	-49.86466	,	0
35,41	,	20969	,	-38418	,	-23579	,	-45.065674	,	4
35,41	,	20985	,	-38375	,	-23568	,	-34.465843	,	10
35,41	,	21001	,	-38354	,	-23551	,	-17.92126	,	16
35,41	,	21033	,	-38346	,	-23552	,	2.964222	,	20
35,41	,	21049	,	-38321	,	-23549	,	25.439945	,	22
35,41	,	21065	,	-38300	,	-23552	,	46.714333	,	21
35,41	,	21081	,	-38297	,	-23545	,	64.67223	,	17
35,41	,	21113	,	-38282	,	-23533	,	77.909454	,	13
35,41	,	21129	,	-38295	,	-23541	,	85.64787	,	7
35,41	,	21145	,	-38322	,	-23537	,	87.51741	,	1
35,41	,	21177	,	-38315	,	-23542	,	83.46399	,	0
35,41	,	21193	,	-38324	,	-23555	,	74.14853	,	0
35,41	,	21209	,	-38324	,	-23547	,	61.043457	,	0
35,41	,	21241	,	-38324	,	-23522	,	45.986183	,	0
35,41	,	21257	,	-38325	,	-23524	,	30.784733	,	0
35,41	,	21273	,	-38314	,	-23532	,	16.994741	,	0
35,41	,	21305	,	-38305	,	-23550	,	5.8243885	,	0
35,41	,	21321	,	-38313	,	-23543	,	-2.0178165	,	0
35,41	,	21337	,	-38340	,	-23547	,	-6.6644073	,	0
35,41	,	21353	,	-38340	,	-23552	,	-9.067227	,	0
35,41	,	21385	,	-38357	,	-23564	,	-10.371946	,	0
35,41	,	21401	,	-38361	,	-23560	,	-11.426179	,	0
35,41	,	21417	,	-38384	,	-23555	,	-12.770441	,	0
35,41	,	21449	,	-38378	,	-23566	,	-14.683009	,	0
35,41	,	21465	,	-38402	,	-23567	,	-17.148115	,	0
35,41	,	21481	,	-38420	,	-23568	,	-20.056433	,	0
35,41	,	21513	,	-38397	,	-23571	,	-23.231281	,	0
35,41	,	21529	,	-38418	,	-23585	,	-26.150747	,	0
35,41	,	21545	,	-38440	,	-23586	,	-28.344099	,	0
35,41	,	21561	,	-38450	,	-23584	,	-29.918291	,	0
35,42	,	21593	,	-38458	,	-23590	,	-31.209263	,	0
35,42	,	21609	,	-38468	,	-23592	,	-32.35292	,	0
35,42	,	21625	,	-38493	,	-23594	,	-33.396385	,	0
35,42	,	21657	,	-38483	,	-23600	,	-34.405933	,	0
35,42	,	21673	,	-38514	,	-23605	,	-35.347748	,	0
35,42	,	21689	,	-38516	,	-23626	,	-36.17771	,	0
35,42	,	21721	,	-38535	,	-23634	,	-36.939476	,	0
35,42	,	21737	,	-38553	,	-23606	,	-37.70453	,	0
35,42	,	21769	,	-38555	,	-23604	,	-38.542587	,	0
35,42	,	21785	,	-38516	,	-23602	,	-39.144394	,	0
35,42	,	21801	,	-38402	,	-23580	,	-38.008533	,	1
35,42	,	21817	,	-38382	,	-23564	,	-32.538475	,	5
35,42	,	21849	,	-38331	,	-23548	,	-20.850851	,	11
35,42	,	21865	,	-38326	,	-23551	,	-3.2300148	,	17
35,42	,	21881	,	-38300	,	-23539	,	18.16551	,	21
35,42	,	21913	,	-38294	,	-23538	,	40.33106	,	22
35,42	,	21929	,	-38277	,	-23534	,	60.371998	,	20
35,42	,	21945	,	-38273	,	-23526	,	76.10547	,	15
35,42	,	21976	,	-38260	,	-23527	,	86.30066	,	10
35,42	,	21992	,	-38265	,	-23534	,	90.63346	,	4
35,42	,	22009	,	-38281	,	-23532	,	89.34206	,	0
35,42	,	22025	,	-38288	,	-23533	,	82.923325	,	0
35,42	,	22056	,	-38292	,	-23532	,	72.214645	,	0
35,42	,	22089	,	-38279	,	-23531	,	43.9485	,	0
35,42	,	22121	,	-38287	,	-23547	,	29.927845	,	0
35,42	,	22137	,	-38273	,	-23525	,	17.69807	,	0
35,42	,	22153	,	-38273	,	-23520	,	7.976843	,	0
35,42	,	22185	,	-38296	,	-23538	,	1.0213137	,	0
35,42	,	22200	,	-38312	,	-23533	,	-3.653862	,	0
35,42	,	22217	,	-38319	,	-23534	,	-7.014535	,	0
35,42	,	22248	,	-38338	,	-23548	,	-9.91888	,	0
35,42	,	22264	,	-38332	,	-23538	,	-12.840547	,	0
35,42	,	22281	,	-38347	,	-23548	,	-15.834997	,	0
35,42	,	22296	,	-38360	,	-23550	,	-18.758902	,	0
35,42	,	22328	,	-38375	,	-23554	,	-21.575043	,	0
35,42	,	22344	,	-38373	,	-23562	,	-24.283094	,	0
35,42	,	22361	,	-38382	,	-23565	,	-26.699577	,	0
35,42	,	22392	,	-38409	,	-23554	,	-28.642883	,	0
35,42	,	22408	,	-38419	,	-23573	,	-30.253284	,	0
35,42	,	22424	,	-38432	,	-23569	,	-31.824163	,	0
35,42	,	22456	,	-38446	,	-23577	,	-33.49344	,	0
35,42	,	22472	,	-38457	,	-23586	,	-35.24434	,	0
35,42	,	22488	,	-38464	,	-23587	,	-36.93506	,	0
35,42	,	22520	,	-38464	,	-23588	,	-38.264496	,	0
35,42	,	22536	,	-38487	,	-23595	,	-38.95413	,	0
35,42	,	22552	,	-38502	,	-23601	,	-39.062504	,	0
35,42	,	22568	,	-38508	,	-23614	,	-38.907875	,	0
35,43	,	22600	,	-38500	,	-23605	,	-38.601845	,	0
35,43	,	22616	,	-38456	,	-23595	,	-37.633484	,	0
35,43	,	22632	,	-38400	,	-23559	,	-34.69758	,	2
35,43	,	22664	,	-38365	,	-23540	,	-28.146519	,	6
35,43	,	22680	,	-38335	,	-23536	,	-17.034912	,	11
35,43	,	22696	,	-38260	,	-23523	,	-1.5126858	,	15
35,43	,	22728	,	-38238	,	-23521	,	17.637112	,	19
35,43	,	22744	,	-38225	,	-23506	,	38.956497	,	21
35,43	,	22760	,	-38214	,	-23508	,	60.0859	,	21
35,43	,	22781	,	-38199	,	-23504	,	78.43095	,	18
35,43	,	22808	,	-38186	,	-23503	,	92.060715	,	13
35,43	,	22824	,	-38180	,	-23494	,	100.025116	,	7
35,43	,	22840	,	-38199	,	-23507	,	102.09558	,	2
35,43	,	22872	,	-38200	,	-23501	,	98.409164	,	0
35,43	,	22888	,	-38200	,	-23504	,	89.55873	,	0
35,43	,	22904	,	-38194	,	-23503	,	76.81611	,	0
35,43	,	22939	,	-38206	,	-23497	,	61.880775	,	0
35,43	,	22952	,	-38189	,	-23505	,	46.43547	,	0
35,43	,	22968	,	-38201	,	-23503	,	31.937141	,	0
35,43	,	23000	,	-38210	,	-23503	,	19.371368	,	0
35,43	,	23016	,	-38212	,	-23514	,	9.086449	,	0
35,43	,	23032	,	-38226	,	-23506	,	1.0004082	,	0
35,43	,	23048	,	-38218	,	-23521	,	-5.1283073	,	0
					***Marker***           Time: 18:35:43
35,43	,	23080	,	-38237	,	-23517	,	-9.566537	,	0
35,43	,	23096	,	-38246	,	-23522	,	-12.680512	,	0
35,43	,	23112	,	-38262	,	-23540	,	-15.00494	,	0
35,43	,	23144	,	-38263	,	-23534	,	-17.025572	,	0
35,43	,	23160	,	-38272	,	-23515	,	-18.952744	,	0
35,43	,	23176	,	-38284	,	-23529	,	-20.786064	,	0
35,43	,	23208	,	-38326	,	-23538	,	-22.6736	,	0
35,43	,	23224	,	-38322	,	-23547	,	-25.031492	,	0
35,43	,	23239	,	-38344	,	-23549	,	-28.09046	,	0
35,43	,	23272	,	-38360	,	-23547	,	-31.693275	,	0
35,43	,	23288	,	-38363	,	-23561	,	-35.5159	,	0
35,43	,	23304	,	-38389	,	-23563	,	-39.170113	,	0
35,43	,	23319	,	-38419	,	-23558	,	-42.466198	,	0
35,43	,	23352	,	-38413	,	-23569	,	-45.482094	,	0
35,43	,	23368	,	-38423	,	-23577	,	-48.07619	,	0
35,43	,	23384	,	-38445	,	-23581	,	-49.864902	,	0
35,43	,	23416	,	-38455	,	-23583	,	-50.71135	,	0
35,43	,	23432	,	-38415	,	-23562	,	-50.510868	,	0
35,43	,	23448	,	-38363	,	-23552	,	-48.40843	,	2
35,43	,	23480	,	-38323	,	-23536	,	-42.838036	,	5
35,43	,	23495	,	-38272	,	-23522	,	-32.494144	,	10
35,43	,	23512	,	-38242	,	-23508	,	-17.087523	,	15
35,43	,	23544	,	-38222	,	-23500	,	2.4250317	,	19
35,43	,	23560	,	-38185	,	-23500	,	24.08668	,	21
35,44	,	23576	,	-38175	,	-23494	,	45.61732	,	21
35,44	,	23592	,	-38154	,	-23478	,	64.911026	,	19
35,44	,	23624	,	-38123	,	-23490	,	80.38512	,	15
35,44	,	23655	,	-38113	,	-23457	,	97.59293	,	6
35,44	,	23687	,	-38115	,	-23469	,	99.160446	,	1
35,44	,	23704	,	-38138	,	-23466	,	95.92389	,	0
35,44	,	23720	,	-38134	,	-23471	,	88.025604	,	0
35,44	,	23751	,	-38134	,	-23477	,	76.20474	,	0
35,44	,	23767	,	-38133	,	-23478	,	61.85756	,	0
35,44	,	23783	,	-38133	,	-23472	,	46.63847	,	0
35,44	,	23816	,	-38123	,	-23474	,	32.086586	,	0
35,44	,	23831	,	-38138	,	-23489	,	19.397705	,	0
35,44	,	23847	,	-38131	,	-23480	,	9.197489	,	0
35,44	,	23880	,	-38161	,	-23482	,	1.4838877	,	0
35,44	,	23896	,	-38175	,	-23485	,	-4.3145275	,	0
35,44	,	23911	,	-38172	,	-23502	,	-8.985034	,	0
35,44	,	23943	,	-38185	,	-23482	,	-12.980483	,	0
35,44	,	23960	,	-38202	,	-23497	,	-16.454664	,	0
35,44	,	23975	,	-38223	,	-23497	,	-19.651112	,	0
35,44	,	23992	,	-38244	,	-23503	,	-22.951351	,	0
35,44	,	24023	,	-38240	,	-23503	,	-26.580238	,	0
35,44	,	24055	,	-38272	,	-23516	,	-33.980045	,	0
35,44	,	24088	,	-38284	,	-23527	,	-37.16265	,	0
35,44	,	24103	,	-38296	,	-23546	,	-39.74501	,	0
35,44	,	24119	,	-38340	,	-23531	,	-41.771324	,	0
35,44	,	24151	,	-38347	,	-23539	,	-43.656788	,	0
35,44	,	24167	,	-38344	,	-23543	,	-45.691864	,	0
35,44	,	24183	,	-38366	,	-23549	,	-47.614185	,	0
35,44	,	24215	,	-38383	,	-23548	,	-49.05706	,	0
35,44	,	24231	,	-38390	,	-23560	,	-49.93183	,	0
35,44	,	24247	,	-38400	,	-23560	,	-50.21871	,	0
35,44	,	24263	,	-38379	,	-23540	,	-49.697365	,	0
35,44	,	24295	,	-38334	,	-23530	,	-47.656067	,	2
35,44	,	24311	,	-38273	,	-23504	,	-42.73369	,	4
35,44	,	24327	,	-38242	,	-23497	,	-33.46293	,	9
35,44	,	24359	,	-38203	,	-23488	,	-19.261017	,	14
35,44	,	24375	,	-38176	,	-23484	,	-0.852808	,	18
35,44	,	24391	,	-38145	,	-23486	,	20.08886	,	20
35,44	,	24423	,	-38133	,	-23471	,	41.44698	,	21
35,44	,	24455	,	-38101	,	-23462	,	76.82655	,	15
35,44	,	24487	,	-38070	,	-23457	,	87.869064	,	11
35,44	,	24504	,	-38081	,	-23461	,	93.996185	,	6
35,44	,	24519	,	-38073	,	-23468	,	95.42276	,	1
35,44	,	24535	,	-38097	,	-23474	,	92.345436	,	0
35,44	,	24567	,	-38104	,	-23452	,	84.99693	,	0
35,45	,	24583	,	-38108	,	-23448	,	73.881836	,	0
35,45	,	24599	,	-38117	,	-23468	,	59.988182	,	0
35,45	,	24631	,	-38095	,	-23459	,	44.755512	,	0
35,45	,	24647	,	-38108	,	-23469	,	29.8586	,	0
35,45	,	24663	,	-38101	,	-23464	,	16.730322	,	0
35,45	,	24695	,	-38113	,	-23465	,	6.1603584	,	0
35,45	,	24711	,	-38133	,	-23468	,	-1.7707329	,	0
35,45	,	24727	,	-38139	,	-23470	,	-7.570869	,	0
35,45	,	24759	,	-38151	,	-23480	,	-11.9376	,	0
35,45	,	24775	,	-38156	,	-23475	,	-15.395253	,	0
35,45	,	24791	,	-38169	,	-23487	,	-18.250494	,	0
35,45	,	24807	,	-38163	,	-23493	,	-20.613289	,	0
35,45	,	24839	,	-38201	,	-23490	,	-22.530287	,	0
35,45	,	24855	,	-38209	,	-23493	,	-24.28342	,	0
35,45	,	24871	,	-38218	,	-23498	,	-26.262527	,	0
35,45	,	24903	,	-38225	,	-23506	,	-28.525646	,	0
35,45	,	24919	,	-38256	,	-23508	,	-30.906075	,	0
35,45	,	24935	,	-38256	,	-23510	,	-33.346954	,	0
35,45	,	24967	,	-38266	,	-23515	,	-35.755913	,	0
35,45	,	24983	,	-38269	,	-23516	,	-37.8089	,	0
35,45	,	24999	,	-38293	,	-23525	,	-39.197292	,	0
35,45	,	25031	,	-38301	,	-23540	,	-39.919575	,	0
35,45	,	25047	,	-38339	,	-23541	,	-40.30182	,	0
35,45	,	25063	,	-38336	,	-23527	,	-40.810173	,	0
35,45	,	25079	,	-38351	,	-23529	,	-41.658882	,	0
35,45	,	25111	,	-38376	,	-23549	,	-42.741608	,	0
35,45	,	25127	,	-38340	,	-23535	,	-43.760635	,	0
35,45	,	25143	,	-38270	,	-23523	,	-43.636597	,	0
35,45	,	25175	,	-38229	,	-23497	,	-40.27261	,	3
35,45	,	25191	,	-38205	,	-23498	,	-31.857082	,	8
35,45	,	25207	,	-38144	,	-23490	,	-18.087126	,	13
35,45	,	25239	,	-38144	,	-23484	,	-0.05142784	,	18
35,45	,	25254	,	-38124	,	-23479	,	20.295336	,	20
35,45	,	25271	,	-38118	,	-23469	,	40.53836	,	20
35,45	,	25286	,	-38100	,	-23464	,	58.35715	,	17
35,45	,	25319	,	-38092	,	-23461	,	72.052345	,	13
35,45	,	25335	,	-38080	,	-23460	,	80.76409	,	8
35,45	,	25351	,	-38088	,	-23446	,	84.33649	,	3
35,45	,	25383	,	-38102	,	-23456	,	82.96149	,	0
35,45	,	25399	,	-38106	,	-23461	,	77.00516	,	0
35,45	,	25415	,	-38106	,	-23469	,	67.213425	,	0
35,45	,	25447	,	-38106	,	-23469	,	54.840824	,	0
35,45	,	25462	,	-38112	,	-23461	,	41.37159	,	0
35,45	,	25478	,	-38109	,	-23457	,	28.153233	,	0
35,45	,	25510	,	-38094	,	-23460	,	16.326784	,	0
35,45	,	25526	,	-38109	,	-23475	,	6.7816753	,	0
35,45	,	25543	,	-38131	,	-23482	,	-0.24315643	,	0
35,45	,	25558	,	-38131	,	-23468	,	-5.260827	,	0
35,46	,	25590	,	-38129	,	-23452	,	-8.907047	,	0
35,46	,	25623	,	-38181	,	-23483	,	-13.500057	,	0
35,46	,	25654	,	-38195	,	-23491	,	-15.654836	,	0
35,46	,	25671	,	-38197	,	-23487	,	-18.667936	,	0
35,46	,	25686	,	-38203	,	-23487	,	-22.497047	,	0
35,46	,	25718	,	-38231	,	-23490	,	-26.634901	,	0
35,46	,	25735	,	-38225	,	-23506	,	-30.648968	,	0
35,46	,	25750	,	-38242	,	-23502	,	-34.17797	,	0
35,46	,	25782	,	-38259	,	-23509	,	-36.93532	,	0
35,46	,	25799	,	-38277	,	-23516	,	-38.94449	,	0
35,46	,	25815	,	-38285	,	-23518	,	-40.437035	,	0
35,46	,	25846	,	-38301	,	-23524	,	-41.57718	,	0
35,46	,	25862	,	-38300	,	-23514	,	-42.371105	,	0
35,46	,	25879	,	-38324	,	-23528	,	-42.735027	,	0
35,46	,	25910	,	-38334	,	-23532	,	-42.693367	,	0
35,46	,	25926	,	-38364	,	-23544	,	-42.50393	,	0
35,46	,	25942	,	-38369	,	-23551	,	-42.53107	,	0
35,46	,	25974	,	-38372	,	-23545	,	-42.904865	,	0
35,46	,	25990	,	-38359	,	-23546	,	-43.237553	,	0
35,46	,	26006	,	-38349	,	-23540	,	-42.721806	,	0
35,46	,	26022	,	-38317	,	-23528	,	-40.430847	,	2
35,46	,	26054	,	-38266	,	-23528	,	-35.396416	,	5
35,46	,	26070	,	-38234	,	-23503	,	-26.706055	,	8
35,46	,	26086	,	-38206	,	-23477	,	-14.03849	,	12
35,46	,	26118	,	-38143	,	-23478	,	2.1046677	,	16
35,46	,	26134	,	-38151	,	-23470	,	20.647968	,	18
35,46	,	26150	,	-38115	,	-23473	,	39.913025	,	19
35,46	,	26182	,	-38120	,	-23475	,	57.81332	,	17
35,46	,	26198	,	-38096	,	-23463	,	72.46904	,	14
35,46	,	26214	,	-38116	,	-23465	,	82.52624	,	10
35,46	,	26246	,	-38123	,	-23478	,	87.09503	,	4
35,46	,	26262	,	-38113	,	-23483	,	85.8548	,	0
35,46	,	26278	,	-38135	,	-23473	,	79.3181	,	0
35,46	,	26294	,	-38126	,	-23470	,	68.63689	,	0
35,46	,	26326	,	-38127	,	-23472	,	55.312843	,	0
35,46	,	26342	,	-38122	,	-23474	,	41.05967	,	0
35,46	,	26358	,	-38131	,	-23474	,	27.436638	,	0
35,46	,	26390	,	-38136	,	-23478	,	15.48258	,	0
35,46	,	26406	,	-38137	,	-23474	,	5.6803894	,	0
35,46	,	26422	,	-38156	,	-23479	,	-1.9124823	,	0
35,46	,	26454	,	-38160	,	-23494	,	-7.5932193	,	0
35,46	,	26470	,	-38181	,	-23495	,	-11.8827915	,	0
35,46	,	26486	,	-38180	,	-23476	,	-15.303654	,	0
35,46	,	26502	,	-38188	,	-23476	,	-18.160318	,	0
35,46	,	26534	,	-38199	,	-23491	,	-20.522404	,	0
35,46	,	26550	,	-38207	,	-23499	,	-22.430977	,	0
35,46	,	26566	,	-38229	,	-23497	,	-24.029366	,	0
35,47	,	26598	,	-38233	,	-23513	,	-25.54655	,	0
35,47	,	26614	,	-38253	,	-23510	,	-27.175741	,	0
35,47	,	26630	,	-38266	,	-23514	,	-29.021126	,	0
35,47	,	26662	,	-38282	,	-23520	,	-31.14141	,	0
35,47	,	26678	,	-38262	,	-23516	,	-33.36168	,	0
35,47	,	26694	,	-38292	,	-23528	,	-35.17913	,	0
35,47	,	26726	,	-38310	,	-23531	,	-36.295425	,	0
35,47	,	26742	,	-38336	,	-23534	,	-37.021084	,	0
35,47	,	26758	,	-38351	,	-23550	,	-37.93124	,	0
35,47	,	26774	,	-38351	,	-23548	,	-39.322395	,	0
35,47	,	26806	,	-38368	,	-23543	,	-41.00856	,	0
35,47	,	26822	,	-38375	,	-23557	,	-42.584892	,	0
35,47	,	26838	,	-38372	,	-23553	,	-43.658607	,	0
35,47	,	26870	,	-38331	,	-23535	,	-43.598434	,	0
35,47	,	26886	,	-38299	,	-23527	,	-41.28946	,	2
35,47	,	26902	,	-38236	,	-23508	,	-35.37535	,	5
35,47	,	26934	,	-38211	,	-23510	,	-24.845018	,	10
35,47	,	26950	,	-38202	,	-23508	,	-9.798962	,	15
35,47	,	26966	,	-38172	,	-23504	,	8.265371	,	18
35,47	,	26998	,	-38144	,	-23474	,	27.244785	,	18
35,47	,	27014	,	-38142	,	-23471	,	45.21914	,	17
35,47	,	27030	,	-38137	,	-23485	,	60.472515	,	15
35,47	,	27046	,	-38133	,	-23465	,	71.54934	,	11
35,47	,	27078	,	-38134	,	-23480	,	77.58366	,	6
35,47	,	27110	,	-38168	,	-23490	,	73.91989	,	0
35,47	,	27142	,	-38160	,	-23478	,	64.95082	,	0
35,47	,	27157	,	-38147	,	-23475	,	52.78943	,	0
35,47	,	27174	,	-38156	,	-23479	,	39.35615	,	0
35,47	,	27206	,	-38150	,	-23472	,	26.395489	,	0
35,47	,	27222	,	-38160	,	-23489	,	15.065033	,	0
35,47	,	27238	,	-38171	,	-23486	,	5.8761845	,	0
35,47	,	27270	,	-38166	,	-23491	,	-1.1775141	,	0
35,47	,	27286	,	-38211	,	-23495	,	-6.4654994	,	0
35,47	,	27302	,	-38186	,	-23496	,	-10.615416	,	0
35,47	,	27317	,	-38210	,	-23501	,	-14.078573	,	0
35,47	,	27349	,	-38228	,	-23500	,	-17.041172	,	0
35,47	,	27365	,	-38223	,	-23503	,	-19.723436	,	0
35,47	,	27382	,	-38244	,	-23505	,	-22.230684	,	0
35,47	,	27414	,	-38256	,	-23511	,	-24.553596	,	0
35,47	,	27429	,	-38254	,	-23525	,	-26.703255	,	0
35,47	,	27445	,	-38264	,	-23532	,	-28.544384	,	0
35,47	,	27493	,	-38300	,	-23520	,	-30.930073	,	0
35,47	,	27509	,	-38293	,	-23521	,	-31.820671	,	0
35,47	,	27525	,	-38318	,	-23530	,	-32.60577	,	0
35,47	,	27557	,	-38341	,	-23541	,	-33.32737	,	0
35,47	,	27574	,	-38356	,	-23548	,	-34.293556	,	0
35,48	,	27589	,	-38376	,	-23559	,	-35.81642	,	0
35,48	,	27621	,	-38370	,	-23564	,	-37.88353	,	0
35,48	,	27637	,	-38391	,	-23566	,	-40.10784	,	0
35,48	,	27653	,	-38385	,	-23560	,	-41.961155	,	0
35,48	,	27685	,	-38391	,	-23557	,	-42.953445	,	0
35,48	,	27701	,	-38352	,	-23544	,	-42.50918	,	0
35,48	,	27717	,	-38288	,	-23527	,	-39.607174	,	2
35,48	,	27749	,	-38239	,	-23516	,	-32.738976	,	6
35,48	,	27765	,	-38215	,	-23509	,	-20.818869	,	11
35,48	,	27781	,	-38192	,	-23496	,	-4.199541	,	16
35,48	,	27813	,	-38172	,	-23485	,	15.371212	,	19
35,48	,	27829	,	-38153	,	-23486	,	35.536755	,	20
35,48	,	27845	,	-38131	,	-23479	,	54.08621	,	18
35,48	,	27893	,	-38119	,	-23475	,	80.4275	,	11
35,48	,	27909	,	-38112	,	-23475	,	86.56427	,	6
35,48	,	27941	,	-38128	,	-23479	,	87.55944	,	0
35,48	,	27957	,	-38131	,	-23490	,	83.55699	,	0
35,48	,	27973	,	-38131	,	-23489	,	75.157234	,	0
35,48	,	27989	,	-38128	,	-23460	,	63.527966	,	0
35,48	,	28021	,	-38113	,	-23462	,	50.287853	,	0
35,48	,	28037	,	-38114	,	-23478	,	37.16921	,	0
35,48	,	28053	,	-38114	,	-23472	,	25.550394	,	0
35,48	,	28085	,	-38141	,	-23473	,	16.028345	,	0
35,48	,	28101	,	-38145	,	-23480	,	8.380306	,	0
35,48	,	28117	,	-38150	,	-23486	,	2.0638905	,	0
35,48	,	28149	,	-38162	,	-23483	,	-3.2999358	,	0
35,48	,	28165	,	-38159	,	-23491	,	-7.8799047	,	0
35,48	,	28181	,	-38177	,	-23489	,	-11.732246	,	0
35,48	,	28213	,	-38174	,	-23487	,	-14.896421	,	0
35,48	,	28229	,	-38178	,	-23499	,	-17.370476	,	0
35,48	,	28245	,	-38193	,	-23500	,	-19.113142	,	0
35,48	,	28261	,	-38203	,	-23507	,	-20.256166	,	0
35,48	,	28293	,	-38225	,	-23506	,	-21.169369	,	0
35,48	,	28309	,	-38231	,	-23516	,	-22.280647	,	0
35,48	,	28325	,	-38236	,	-23512	,	-23.798168	,	0
35,48	,	28357	,	-38262	,	-23524	,	-25.660946	,	0
35,48	,	28373	,	-38272	,	-23535	,	-27.81672	,	0
35,48	,	28389	,	-38286	,	-23524	,	-30.268196	,	0
35,48	,	28421	,	-38279	,	-23518	,	-32.812904	,	0
35,48	,	28437	,	-38291	,	-23521	,	-34.975624	,	0
35,48	,	28453	,	-38335	,	-23555	,	-36.48356	,	0
35,48	,	28485	,	-38336	,	-23551	,	-37.668747	,	0
35,48	,	28501	,	-38316	,	-23549	,	-38.808514	,	0
35,48	,	28517	,	-38308	,	-23538	,	-39.3692	,	0
35,48	,	28533	,	-38257	,	-23523	,	-38.20923	,	1
35,48	,	28565	,	-38200	,	-23497	,	-33.901543	,	4
35,49	,	28581	,	-38171	,	-23488	,	-25.130774	,	8
35,49	,	28597	,	-38146	,	-23481	,	-11.577961	,	13
35,49	,	28629	,	-38108	,	-23474	,	5.755329	,	17
35,49	,	28645	,	-38082	,	-23467	,	25.160152	,	19
35,49	,	28661	,	-38041	,	-23461	,	44.77764	,	19
35,49	,	28693	,	-38041	,	-23453	,	62.805794	,	18
35,49	,	28709	,	-38026	,	-23446	,	77.71086	,	14
35,49	,	28725	,	-38014	,	-23441	,	88.43198	,	10
35,49	,	28741	,	-38005	,	-23442	,	94.45598	,	6
35,49	,	28773	,	-38018	,	-23446	,	95.691666	,	1
35,49	,	28789	,	-38029	,	-23450	,	92.22013	,	0
35,49	,	28805	,	-38027	,	-23454	,	84.34419	,	0
35,49	,	28837	,	-38024	,	-23454	,	72.92113	,	0
35,49	,	28853	,	-38017	,	-23445	,	59.391872	,	0
35,49	,	28869	,	-38012	,	-23459	,	45.42026	,	0
35,49	,	28901	,	-38034	,	-23455	,	32.366707	,	0
35,49	,	28917	,	-38038	,	-23435	,	20.87969	,	0
35,49	,	28933	,	-38031	,	-23437	,	11.117214	,	0
35,49	,	28965	,	-38044	,	-23453	,	3.188385	,	0
35,49	,	28980	,	-38068	,	-23456	,	-3.0094318	,	0
35,49	,	28997	,	-38062	,	-23462	,	-7.93821	,	0
35,49	,	29013	,	-38072	,	-23464	,	-11.984977	,	0
35,49	,	29045	,	-38081	,	-23468	,	-15.270141	,	0
35,49	,	29077	,	-38102	,	-23481	,	-20.294313	,	0
35,49	,	29109	,	-38140	,	-23478	,	-22.590237	,	0
35,49	,	29125	,	-38134	,	-23484	,	-25.103895	,	0
35,49	,	29141	,	-38157	,	-23490	,	-27.930908	,	0
35,49	,	29172	,	-38172	,	-23487	,	-30.957964	,	0
35,49	,	29189	,	-38197	,	-23501	,	-34.123516	,	0
35,49	,	29204	,	-38197	,	-23498	,	-37.401093	,	0
35,49	,	29237	,	-38212	,	-23506	,	-40.552666	,	0
35,49	,	29253	,	-38235	,	-23512	,	-43.25602	,	0
35,49	,	29269	,	-38238	,	-23514	,	-45.375397	,	0
35,49	,	29284	,	-38267	,	-23515	,	-46.92502	,	0
35,49	,	29317	,	-38266	,	-23527	,	-47.974117	,	0
35,49	,	29333	,	-38272	,	-23540	,	-48.499954	,	0
35,49	,	29348	,	-38299	,	-23538	,	-48.38619	,	0
35,49	,	29380	,	-38269	,	-23542	,	-47.55282	,	0
35,49	,	29396	,	-38221	,	-23516	,	-45.45932	,	2
35,49	,	29412	,	-38174	,	-23474	,	-40.733395	,	4
35,49	,	29460	,	-38095	,	-23475	,	-18.126186	,	13
35,49	,	29476	,	-38033	,	-23455	,	0.053934097	,	18
35,49	,	29509	,	-38023	,	-23449	,	21.392889	,	21
35,49	,	29524	,	-37983	,	-23438	,	43.954918	,	22
35,49	,	29540	,	-37962	,	-23435	,	65.54185	,	21
35,49	,	29556	,	-37958	,	-23428	,	84.15369	,	18
35,50	,	29588	,	-37949	,	-23426	,	98.1058	,	13
35,50	,	29604	,	-37948	,	-23424	,	106.21706	,	8
35,50	,	29620	,	-37970	,	-23426	,	107.95684	,	1
35,50	,	29652	,	-37962	,	-23427	,	103.37669	,	0
35,50	,	29668	,	-37974	,	-23427	,	93.23106	,	0
35,50	,	29684	,	-37960	,	-23432	,	79.017845	,	0
35,50	,	29716	,	-37974	,	-23433	,	62.639732	,	0
35,50	,	29732	,	-37977	,	-23425	,	45.88052	,	0
35,50	,	29748	,	-37998	,	-23426	,	29.999687	,	0
35,50	,	29764	,	-37983	,	-23437	,	15.775045	,	0
35,50	,	29796	,	-37992	,	-23432	,	3.8221207	,	0
35,50	,	29812	,	-37996	,	-23447	,	-5.4169817	,	0
35,50	,	29844	,	-37999	,	-23442	,	-11.891469	,	0
35,50	,	29876	,	-38031	,	-23458	,	-18.545738	,	0
35,50	,	29908	,	-38056	,	-23471	,	-20.399534	,	0
35,50	,	29924	,	-38054	,	-23457	,	-22.17243	,	0
35,50	,	29940	,	-38082	,	-23452	,	-24.15411	,	0
35,50	,	29956	,	-38090	,	-23464	,	-26.467707	,	0
35,50	,	29988	,	-38113	,	-23478	,	-29.175556	,	0
35,50	,	30004	,	-38141	,	-23484	,	-32.33891	,	0
35,50	,	30020	,	-38151	,	-23490	,	-36.03626	,	0
35,50	,	30052	,	-38172	,	-23488	,	-40.182533	,	0
35,50	,	30068	,	-38182	,	-23493	,	-44.447136	,	0
35,50	,	30084	,	-38197	,	-23489	,	-48.39148	,	0
35,50	,	30116	,	-38211	,	-23497	,	-51.613197	,	0
35,50	,	30132	,	-38223	,	-23504	,	-53.850246	,	0
35,50	,	30148	,	-38231	,	-23512	,	-54.972046	,	0
35,50	,	30180	,	-38252	,	-23517	,	-54.98069	,	0
35,50	,	30196	,	-38278	,	-23524	,	-54.158714	,	0
35,50	,	30228	,	-38263	,	-23520	,	-51.737915	,	1
35,50	,	30260	,	-38224	,	-23512	,	-49.670753	,	2
35,50	,	30276	,	-38191	,	-23502	,	-45.46061	,	4
35,50	,	30292	,	-38146	,	-23503	,	-37.77426	,	7
35,50	,	30324	,	-38112	,	-23473	,	-25.903164	,	11
35,50	,	30340	,	-38073	,	-23460	,	-10.004498	,	15
35,50	,	30356	,	-38050	,	-23457	,	8.91931	,	18
35,50	,	30388	,	-38016	,	-23446	,	29.258984	,	20
35,50	,	30404	,	-37993	,	-23448	,	49.21395	,	19
35,50	,	30420	,	-37988	,	-23445	,	67.07464	,	17
35,50	,	30452	,	-37971	,	-23434	,	81.31493	,	14
35,50	,	30468	,	-37966	,	-23433	,	90.83972	,	9
35,50	,	30484	,	-37996	,	-23441	,	95.02106	,	4
35,50	,	30500	,	-37991	,	-23436	,	93.49657	,	0
35,50	,	30532	,	-38002	,	-23452	,	86.44766	,	0
35,50	,	30548	,	-37994	,	-23444	,	74.911575	,	0
35,50	,	30563	,	-37993	,	-23440	,	60.5687	,	0
35,51	,	30596	,	-37995	,	-23444	,	45.294384	,	0
35,51	,	30612	,	-37992	,	-23444	,	30.720222	,	0
35,51	,	30628	,	-38002	,	-23437	,	17.975636	,	0
35,51	,	30659	,	-38007	,	-23447	,	7.6009407	,	0
35,51	,	30676	,	-38015	,	-23456	,	-0.38394833	,	0
35,51	,	30692	,	-38030	,	-23444	,	-6.3073235	,	0
35,51	,	30724	,	-38023	,	-23458	,	-10.626221	,	0
35,51	,	30740	,	-38056	,	-23461	,	-13.776178	,	0
35,51	,	30756	,	-38064	,	-23470	,	-16.295403	,	0
35,51	,	30772	,	-38081	,	-23484	,	-18.782461	,	0
35,51	,	30804	,	-38098	,	-23487	,	-21.62075	,	0
35,51	,	30820	,	-38107	,	-23470	,	-24.918472	,	0
35,51	,	30836	,	-38129	,	-23467	,	-28.580692	,	0
35,51	,	30868	,	-38127	,	-23483	,	-32.362404	,	0
35,51	,	30884	,	-38164	,	-23488	,	-35.97483	,	0
35,51	,	30900	,	-38183	,	-23503	,	-39.35747	,	0
35,51	,	30931	,	-38206	,	-23508	,	-42.732864	,	0
35,51	,	30947	,	-38215	,	-23514	,	-46.240868	,	0
35,51	,	30964	,	-38222	,	-23511	,	-49.660774	,	0
35,51	,	30980	,	-38227	,	-23519	,	-52.455643	,	0
35,51	,	31028	,	-38252	,	-23526	,	-54.37834	,	0
35,51	,	31043	,	-38272	,	-23532	,	-53.462273	,	0
35,51	,	31075	,	-38279	,	-23536	,	-51.70302	,	1
35,51	,	31092	,	-38306	,	-23541	,	-49.55349	,	2
35,51	,	31108	,	-38297	,	-23535	,	-47.415413	,	2
35,51	,	31140	,	-38279	,	-23526	,	-45.249886	,	2
35,51	,	31155	,	-38225	,	-23510	,	-42.195137	,	3
35,51	,	31172	,	-38187	,	-23507	,	-36.740017	,	5
35,51	,	31203	,	-38145	,	-23499	,	-27.504288	,	9
35,51	,	31220	,	-38120	,	-23482	,	-14.033211	,	13
35,51	,	31236	,	-38095	,	-23476	,	2.935852	,	16
35,51	,	31251	,	-38090	,	-23476	,	21.691832	,	18
35,51	,	31284	,	-38076	,	-23477	,	40.017006	,	18
35,51	,	31299	,	-38056	,	-23481	,	55.853687	,	15
35,51	,	31315	,	-38032	,	-23446	,	67.9366	,	12
35,51	,	31347	,	-38018	,	-23447	,	75.92819	,	7
35,51	,	31364	,	-38016	,	-23455	,	80.02245	,	4
35,51	,	31379	,	-38042	,	-23468	,	80.37436	,	0
35,51	,	31411	,	-38062	,	-23458	,	76.78708	,	0
35,51	,	31443	,	-38047	,	-23460	,	58.22766	,	0
35,51	,	31475	,	-38065	,	-23470	,	45.42852	,	0
35,51	,	31491	,	-38053	,	-23464	,	32.14793	,	0
35,51	,	31507	,	-38058	,	-23450	,	19.575014	,	0
35,51	,	31523	,	-38068	,	-23461	,	8.658894	,	0
35,51	,	31555	,	-38087	,	-23462	,	-0.2208023	,	0
35,51	,	31571	,	-38079	,	-23460	,	-7.1966276	,	0
35,52	,	31587	,	-38088	,	-23470	,	-12.452053	,	0
35,52	,	31619	,	-38111	,	-23478	,	-16.18441	,	0
35,52	,	31635	,	-38106	,	-23482	,	-18.803532	,	0
35,52	,	31651	,	-38127	,	-23488	,	-20.731823	,	0
35,52	,	31683	,	-38142	,	-23497	,	-22.314407	,	0
35,52	,	31699	,	-38153	,	-23488	,	-23.919468	,	0
35,52	,	31715	,	-38179	,	-23499	,	-25.850784	,	0
35,52	,	31747	,	-38177	,	-23497	,	-28.24673	,	0
35,52	,	31763	,	-38193	,	-23497	,	-30.97364	,	0
35,52	,	31779	,	-38203	,	-23517	,	-33.691654	,	0
35,52	,	31827	,	-38243	,	-23512	,	-38.244102	,	0
35,52	,	31843	,	-38257	,	-23502	,	-40.186382	,	0
35,52	,	31875	,	-38259	,	-23518	,	-42.047127	,	0
35,52	,	31891	,	-38289	,	-23532	,	-43.718193	,	0
35,52	,	31907	,	-38304	,	-23539	,	-45.171913	,	0
35,52	,	31939	,	-38329	,	-23544	,	-46.598354	,	0
35,52	,	31955	,	-38334	,	-23544	,	-48.16133	,	0
35,52	,	31971	,	-38343	,	-23545	,	-49.74366	,	0
35,52	,	31987	,	-38368	,	-23546	,	-51.04166	,	0
35,52	,	32019	,	-38358	,	-23556	,	-51.80402	,	0
35,52	,	32035	,	-38352	,	-23547	,	-51.6701	,	0
35,52	,	32051	,	-38292	,	-23535	,	-49.80172	,	1
35,52	,	32083	,	-38247	,	-23519	,	-44.800907	,	5
35,52	,	32099	,	-38190	,	-23511	,	-35.19769	,	9
35,52	,	32115	,	-38168	,	-23494	,	-20.347445	,	14
35,52	,	32147	,	-38153	,	-23495	,	-1.0906277	,	19
35,52	,	32163	,	-38136	,	-23498	,	20.372952	,	21
35,52	,	32179	,	-38138	,	-23488	,	41.274242	,	20
35,52	,	32195	,	-38109	,	-23490	,	59.127777	,	17
35,52	,	32227	,	-38092	,	-23494	,	72.415985	,	13
35,52	,	32243	,	-38091	,	-23475	,	80.692	,	8
35,52	,	32259	,	-38087	,	-23462	,	84.05897	,	3
35,52	,	32291	,	-38103	,	-23477	,	82.79174	,	0
35,52	,	32307	,	-38102	,	-23481	,	77.29628	,	0
35,52	,	32323	,	-38103	,	-23479	,	68.27546	,	0
35,52	,	32355	,	-38100	,	-23468	,	56.85449	,	0
35,52	,	32371	,	-38117	,	-23469	,	44.31181	,	0
35,52	,	32387	,	-38110	,	-23476	,	31.729677	,	0
35,52	,	32419	,	-38118	,	-23473	,	19.971241	,	0
35,52	,	32435	,	-38125	,	-23473	,	9.681202	,	0
35,52	,	32451	,	-38118	,	-23479	,	1.2313929	,	0
35,52	,	32467	,	-38134	,	-23490	,	-5.2200727	,	0
35,52	,	32499	,	-38130	,	-23482	,	-9.747297	,	0
35,52	,	32515	,	-38145	,	-23494	,	-12.650295	,	0
35,52	,	32531	,	-38149	,	-23484	,	-14.357234	,	0
35,52	,	32563	,	-38164	,	-23489	,	-15.367092	,	0
35,53	,	32579	,	-38182	,	-23491	,	-16.21598	,	0
35,53	,	32594	,	-38192	,	-23496	,	-17.40901	,	0
35,53	,	32627	,	-38203	,	-23501	,	-19.237774	,	0
35,53	,	32643	,	-38231	,	-23507	,	-21.765276	,	0
35,53	,	32659	,	-38227	,	-23512	,	-24.941359	,	0
35,53	,	32691	,	-38231	,	-23519	,	-28.433266	,	0
35,53	,	32707	,	-38247	,	-23526	,	-31.643764	,	0
35,53	,	32723	,	-38251	,	-23538	,	-34.120876	,	0
35,53	,	32739	,	-38291	,	-23513	,	-35.83007	,	0
35,53	,	32771	,	-38290	,	-23502	,	-37.13331	,	0
35,53	,	32787	,	-38304	,	-23526	,	-38.380817	,	0
35,53	,	32803	,	-38325	,	-23538	,	-39.63385	,	0
35,53	,	32835	,	-38331	,	-23545	,	-40.866783	,	0
35,53	,	32851	,	-38342	,	-23552	,	-42.010094	,	0
35,53	,	32866	,	-38359	,	-23552	,	-42.923325	,	0
35,53	,	32899	,	-38366	,	-23552	,	-43.527863	,	0
35,53	,	32915	,	-38379	,	-23551	,	-43.795742	,	0
35,53	,	32931	,	-38334	,	-23545	,	-43.44325	,	0
35,53	,	32962	,	-38309	,	-23526	,	-41.551403	,	1
35,53	,	32994	,	-38221	,	-23509	,	-28.004707	,	8
35,53	,	33010	,	-38206	,	-23497	,	-14.959778	,	13
35,53	,	33042	,	-38168	,	-23495	,	1.5279694	,	16
35,53	,	33058	,	-38142	,	-23486	,	19.917732	,	18
35,53	,	33075	,	-38137	,	-23485	,	38.4595	,	18
35,53	,	33106	,	-38117	,	-23484	,	55.316257	,	16
35,53	,	33123	,	-38104	,	-23474	,	68.91392	,	13
35,53	,	33138	,	-38104	,	-23473	,	78.27471	,	9
35,53	,	33171	,	-38117	,	-23472	,	82.85191	,	4
35,53	,	33186	,	-38124	,	-23477	,	82.352356	,	0
35,53	,	33202	,	-38146	,	-23486	,	76.83717	,	0
35,53	,	33218	,	-38124	,	-23497	,	66.96218	,	0
35,53	,	33251	,	-38124	,	-23464	,	54.18539	,	0
35,53	,	33266	,	-38118	,	-23461	,	40.45481	,	0
35,53	,	33282	,	-38121	,	-23480	,	27.500938	,	0
35,53	,	33314	,	-38122	,	-23469	,	16.433846	,	0
35,53	,	33330	,	-38138	,	-23479	,	7.6724358	,	0
35,53	,	33346	,	-38158	,	-23474	,	0.96733	,	0
35,53	,	33378	,	-38152	,	-23476	,	-4.299707	,	0
35,53	,	33410	,	-38183	,	-23489	,	-12.130196	,	0
35,53	,	33442	,	-38187	,	-23489	,	-15.217544	,	0
35,53	,	33458	,	-38200	,	-23491	,	-18.112339	,	0
35,53	,	33474	,	-38207	,	-23495	,	-20.89135	,	0
35,53	,	33490	,	-38187	,	-23503	,	-23.36159	,	0
35,53	,	33522	,	-38224	,	-23496	,	-25.133656	,	0
35,53	,	33538	,	-38246	,	-23507	,	-26.22216	,	0
35,53	,	33554	,	-38250	,	-23504	,	-27.195858	,	0
35,54	,	33586	,	-38256	,	-23511	,	-28.453587	,	0
35,54	,	33602	,	-38278	,	-23518	,	-29.964748	,	0
35,54	,	33618	,	-38296	,	-23526	,	-31.68322	,	0
35,54	,	33650	,	-38303	,	-23525	,	-33.66544	,	0
35,54	,	33666	,	-38309	,	-23537	,	-35.800888	,	0
35,54	,	33682	,	-38312	,	-23537	,	-37.714447	,	0
35,54	,	33714	,	-38313	,	-23552	,	-38.925518	,	0
35,54	,	33730	,	-38337	,	-23557	,	-39.132706	,	0
35,54	,	33746	,	-38351	,	-23546	,	-38.49639	,	0
35,54	,	33762	,	-38369	,	-23535	,	-37.549065	,	0
35,54	,	33810	,	-38364	,	-23543	,	-36.192253	,	0
35,54	,	33842	,	-38305	,	-23528	,	-35.145782	,	1
35,54	,	33858	,	-38252	,	-23514	,	-32.06174	,	3
35,54	,	33874	,	-38213	,	-23506	,	-25.0988	,	6
35,54	,	33906	,	-38179	,	-23492	,	-13.288239	,	11
35,54	,	33922	,	-38165	,	-23487	,	2.864255	,	16
35,54	,	33938	,	-38122	,	-23471	,	21.698051	,	18
35,54	,	33954	,	-38091	,	-23477	,	41.260628	,	19
35,54	,	33986	,	-38087	,	-23463	,	59.794807	,	18
35,54	,	34002	,	-38061	,	-23460	,	75.668625	,	15
35,54	,	34018	,	-38047	,	-23458	,	87.60281	,	11
35,54	,	34050	,	-38053	,	-23452	,	94.89542	,	7
35,54	,	34066	,	-38066	,	-23459	,	97.13751	,	2
35,54	,	34082	,	-38068	,	-23458	,	94.123	,	0
35,54	,	34114	,	-38065	,	-23456	,	86.21565	,	0
35,54	,	34130	,	-38060	,	-23451	,	74.55269	,	0
35,54	,	34146	,	-38065	,	-23471	,	60.743225	,	0
35,54	,	34178	,	-38068	,	-23452	,	46.352177	,	0
35,54	,	34210	,	-38051	,	-23457	,	20.584846	,	0
35,54	,	34226	,	-38081	,	-23465	,	10.878233	,	0
35,54	,	34258	,	-38072	,	-23460	,	3.5408678	,	0
35,54	,	34274	,	-38094	,	-23462	,	-1.8762369	,	0
35,54	,	34290	,	-38098	,	-23468	,	-5.9533243	,	0
35,54	,	34322	,	-38095	,	-23472	,	-9.176563	,	0
35,54	,	34338	,	-38106	,	-23473	,	-11.753507	,	0
35,54	,	34354	,	-38125	,	-23475	,	-13.81449	,	0
35,54	,	34386	,	-38128	,	-23479	,	-15.644407	,	0
35,54	,	34402	,	-38153	,	-23481	,	-17.554579	,	0
35,54	,	34418	,	-38160	,	-23491	,	-19.794647	,	0
35,54	,	34434	,	-38163	,	-23495	,	-22.436544	,	0
35,54	,	34465	,	-38193	,	-23492	,	-25.32816	,	0
35,54	,	34482	,	-38204	,	-23496	,	-28.381275	,	0
35,54	,	34498	,	-38206	,	-23511	,	-31.55656	,	0
35,54	,	34529	,	-38216	,	-23518	,	-34.564926	,	0
35,54	,	34545	,	-38236	,	-23512	,	-37.039143	,	0
35,54	,	34561	,	-38257	,	-23522	,	-38.91898	,	0
35,55	,	34594	,	-38246	,	-23528	,	-40.330204	,	0
35,55	,	34610	,	-38277	,	-23534	,	-41.25872	,	0
35,55	,	34626	,	-38281	,	-23542	,	-41.697136	,	0
35,55	,	34657	,	-38303	,	-23561	,	-41.82274	,	0
35,55	,	34674	,	-38302	,	-23541	,	-41.808548	,	0
35,55	,	34690	,	-38284	,	-23529	,	-41.507423	,	0
35,55	,	34706	,	-38264	,	-23526	,	-40.245903	,	1
35,55	,	34738	,	-38166	,	-23500	,	-36.710503	,	3
35,55	,	34753	,	-38121	,	-23488	,	-29.008018	,	7
35,55	,	34770	,	-38104	,	-23468	,	-15.784374	,	13
35,55	,	34802	,	-38077	,	-23463	,	2.4242363	,	18
35,55	,	34817	,	-38037	,	-23457	,	23.553194	,	21
35,55	,	34834	,	-38032	,	-23456	,	45.17149	,	21
35,55	,	34866	,	-38019	,	-23441	,	64.91111	,	19
35,55	,	34882	,	-37987	,	-23437	,	80.79464	,	15
35,55	,	34897	,	-37977	,	-23426	,	91.776245	,	10
35,55	,	34929	,	-37962	,	-23429	,	97.7077	,	5
35,55	,	34945	,	-37988	,	-23436	,	98.774124	,	1
35,55	,	34961	,	-37968	,	-23438	,	95.20245	,	0
35,55	,	34977	,	-37988	,	-23436	,	87.48776	,	0
35,55	,	35010	,	-37988	,	-23432	,	76.47113	,	0
35,55	,	35025	,	-37969	,	-23432	,	63.279995	,	0
35,55	,	35041	,	-37980	,	-23437	,	49.367233	,	0
35,55	,	35073	,	-37979	,	-23436	,	36.095757	,	0
35,55	,	35089	,	-37966	,	-23433	,	24.398266	,	0
35,55	,	35105	,	-37973	,	-23439	,	14.904827	,	0
35,55	,	35137	,	-38002	,	-23451	,	7.7348766	,	0
35,55	,	35153	,	-38011	,	-23463	,	2.264615	,	0
35,55	,	35169	,	-38013	,	-23438	,	-2.3542957	,	0
35,55	,	35201	,	-38031	,	-23437	,	-6.617527	,	0
35,55	,	35217	,	-38046	,	-23458	,	-10.764393	,	0
35,55	,	35233	,	-38071	,	-23456	,	-15.047051	,	0
35,55	,	35249	,	-38078	,	-23466	,	-19.682474	,	0
35,55	,	35281	,	-38094	,	-23477	,	-24.647257	,	0
35,55	,	35297	,	-38115	,	-23472	,	-29.706928	,	0
35,55	,	35313	,	-38120	,	-23487	,	-34.59412	,	0
35,55	,	35361	,	-38154	,	-23495	,	-42.569054	,	0
35,55	,	35377	,	-38164	,	-23495	,	-45.242912	,	0
35,55	,	35409	,	-38170	,	-23500	,	-47.027718	,	0
35,55	,	35425	,	-38184	,	-23503	,	-47.892097	,	0
35,55	,	35441	,	-38194	,	-23505	,	-47.849274	,	0
35,55	,	35473	,	-38212	,	-23505	,	-47.075256	,	0
35,55	,	35489	,	-38230	,	-23520	,	-45.909233	,	1
35,55	,	35505	,	-38247	,	-23517	,	-44.782295	,	1
35,55	,	35521	,	-38266	,	-23518	,	-44.0802	,	0
35,55	,	35553	,	-38270	,	-23523	,	-43.98112	,	0
35,55	,	35569	,	-38260	,	-23511	,	-44.2341	,	0
35,56	,	35585	,	-38205	,	-23501	,	-43.86496	,	0
35,56	,	35617	,	-38165	,	-23495	,	-41.164726	,	2
35,56	,	35633	,	-38112	,	-23488	,	-34.342857	,	6
35,56	,	35649	,	-38087	,	-23501	,	-22.445587	,	11
35,56	,	35681	,	-38066	,	-23456	,	-5.91086	,	16
35,56	,	35697	,	-38028	,	-23437	,	13.617542	,	19
35,56	,	35713	,	-37997	,	-23449	,	34.1215	,	20
35,56	,	35729	,	-37966	,	-23439	,	53.843773	,	19
35,56	,	35777	,	-37942	,	-23423	,	85.74743	,	14
35,56	,	35793	,	-37915	,	-23423	,	95.87476	,	10
35,56	,	35825	,	-37944	,	-23430	,	101.102036	,	5
35,56	,	35841	,	-37957	,	-23427	,	100.916565	,	0
35,56	,	35873	,	-37945	,	-23429	,	95.1461	,	0
35,56	,	35889	,	-37948	,	-23428	,	84.53339	,	0
35,56	,	35905	,	-37956	,	-23426	,	70.62009	,	0
35,56	,	35921	,	-37950	,	-23430	,	55.10444	,	0
35,56	,	35953	,	-37958	,	-23421	,	39.545162	,	0
35,56	,	35969	,	-37956	,	-23437	,	25.21872	,	0
35,56	,	35985	,	-37971	,	-23433	,	12.944723	,	0
35,56	,	36017	,	-37979	,	-23433	,	2.9934616	,	0
35,56	,	36033	,	-37976	,	-23434	,	-4.7438965	,	0
35,56	,	36049	,	-37984	,	-23439	,	-10.433443	,	0
35,56	,	36081	,	-38003	,	-23453	,	-14.330172	,	0
35,56	,	36097	,	-38003	,	-23437	,	-16.913784	,	0
35,56	,	36113	,	-38006	,	-23450	,	-18.628475	,	0
35,56	,	36145	,	-38034	,	-23456	,	-19.779678	,	0
35,56	,	36177	,	-38063	,	-23475	,	-22.50807	,	0
35,56	,	36193	,	-38075	,	-23469	,	-24.967415	,	0
35,56	,	36225	,	-38098	,	-23480	,	-28.078732	,	0
35,56	,	36241	,	-38118	,	-23479	,	-31.648912	,	0
35,56	,	36257	,	-38118	,	-23484	,	-35.50207	,	0
35,56	,	36289	,	-38137	,	-23487	,	-39.268425	,	0
35,56	,	36305	,	-38152	,	-23488	,	-42.533127	,	0
35,56	,	36321	,	-38164	,	-23495	,	-45.09144	,	0
35,56	,	36353	,	-38172	,	-23495	,	-46.868065	,	0
35,56	,	36369	,	-38198	,	-23507	,	-47.85869	,	0
35,56	,	36385	,	-38212	,	-23517	,	-48.26048	,	0
35,56	,	36417	,	-38224	,	-23513	,	-48.385014	,	0
35,56	,	36432	,	-38234	,	-23528	,	-48.39514	,	0
35,56	,	36448	,	-38239	,	-23515	,	-48.224957	,	0
35,56	,	36465	,	-38215	,	-23509	,	-47.514248	,	0
35,56	,	36496	,	-38171	,	-23500	,	-45.373436	,	2
35,56	,	36513	,	-38128	,	-23479	,	-40.427185	,	4
35,56	,	36529	,	-38080	,	-23492	,	-31.388222	,	9
35,56	,	36560	,	-38090	,	-23487	,	-17.9195	,	13
35,56	,	36577	,	-38048	,	-23460	,	-1.1142445	,	16
35,57	,	36593	,	-38030	,	-23442	,	17.138145	,	18
35,57	,	36625	,	-38007	,	-23434	,	35.04959	,	17
35,57	,	36640	,	-37998	,	-23432	,	51.11144	,	16
35,57	,	36656	,	-37967	,	-23431	,	64.16393	,	13
35,57	,	36689	,	-37932	,	-23425	,	73.74406	,	9
35,57	,	36705	,	-37967	,	-23426	,	79.89414	,	6
35,57	,	36721	,	-37962	,	-23436	,	82.37521	,	2
35,57	,	36736	,	-37961	,	-23434	,	80.76065	,	0
35,57	,	36769	,	-37966	,	-23440	,	75.18053	,	0
35,57	,	36785	,	-37977	,	-23431	,	66.3168	,	0
35,57	,	36800	,	-37978	,	-23439	,	55.064476	,	0
35,57	,	36833	,	-37983	,	-23427	,	42.466686	,	0
35,57	,	36848	,	-37987	,	-23434	,	29.632492	,	0
35,57	,	36864	,	-37978	,	-23433	,	17.597677	,	0
35,57	,	36896	,	-37990	,	-23440	,	7.2220726	,	0
35,57	,	36928	,	-38009	,	-23441	,	-7.2149057	,	0
35,57	,	36944	,	-38022	,	-23442	,	-11.740311	,	0
35,57	,	36976	,	-38013	,	-23445	,	-15.047649	,	0
35,57	,	36992	,	-38040	,	-23451	,	-17.424173	,	0
35,57	,	37008	,	-38051	,	-23462	,	-19.206026	,	0
35,57	,	37040	,	-38058	,	-23466	,	-20.841972	,	0
35,57	,	37056	,	-38087	,	-23476	,	-22.674595	,	0
35,57	,	37072	,	-38088	,	-23473	,	-24.920849	,	0
35,57	,	37104	,	-38100	,	-23462	,	-27.579536	,	0
35,57	,	37120	,	-38118	,	-23470	,	-30.40415	,	0
35,57	,	37136	,	-38137	,	-23470	,	-33.21321	,	0
35,57	,	37168	,	-38185	,	-23488	,	-36.166885	,	0
35,57	,	37184	,	-38172	,	-23499	,	-39.610786	,	0
35,57	,	37200	,	-38176	,	-23494	,	-43.39686	,	0
35,57	,	37216	,	-38184	,	-23502	,	-46.707825	,	0
35,57	,	37248	,	-38195	,	-23500	,	-48.762066	,	0
35,57	,	37264	,	-38224	,	-23505	,	-49.366047	,	0
35,57	,	37280	,	-38224	,	-23515	,	-48.86232	,	0
35,57	,	37328	,	-38255	,	-23518	,	-46.24105	,	1
35,57	,	37344	,	-38265	,	-23516	,	-44.746162	,	1
35,57	,	37376	,	-38263	,	-23514	,	-43.329475	,	1
35,57	,	37392	,	-38209	,	-23501	,	-41.540382	,	1
35,57	,	37408	,	-38174	,	-23494	,	-38.100845	,	3
35,57	,	37440	,	-38120	,	-23479	,	-31.384975	,	6
35,57	,	37456	,	-38094	,	-23469	,	-20.33577	,	11
35,57	,	37472	,	-38077	,	-23466	,	-5.1103725	,	15
35,57	,	37488	,	-38064	,	-23457	,	12.815813	,	17
35,57	,	37520	,	-38026	,	-23454	,	31.327078	,	18
35,57	,	37536	,	-38018	,	-23436	,	48.556072	,	17
35,57	,	37552	,	-38014	,	-23457	,	63.051174	,	14
35,58	,	37584	,	-38001	,	-23449	,	73.641136	,	10
35,58	,	37600	,	-37992	,	-23430	,	79.677536	,	6
35,58	,	37616	,	-38016	,	-23428	,	81.059975	,	1
35,58	,	37648	,	-38020	,	-23445	,	77.86946	,	0
35,58	,	37664	,	-38032	,	-23437	,	70.392715	,	0
35,58	,	37680	,	-38027	,	-23442	,	59.4382	,	0
35,58	,	37712	,	-38039	,	-23443	,	46.30301	,	0
35,58	,	37744	,	-38046	,	-23435	,	19.437382	,	0
35,58	,	37760	,	-38035	,	-23447	,	8.108715	,	0
35,58	,	37792	,	-38043	,	-23453	,	-0.9813633	,	0
35,58	,	37808	,	-38057	,	-23455	,	-7.6922874	,	0
35,58	,	37840	,	-38069	,	-23449	,	-12.336536	,	0
35,58	,	37856	,	-38077	,	-23457	,	-15.533079	,	0
35,58	,	37872	,	-38085	,	-23463	,	-17.849789	,	0
35,58	,	37903	,	-38090	,	-23459	,	-19.637508	,	0
35,58	,	37920	,	-38105	,	-23466	,	-21.08343	,	0
35,58	,	37936	,	-38122	,	-23469	,	-22.391764	,	0
35,58	,	37952	,	-38145	,	-23471	,	-23.900415	,	0
35,58	,	37984	,	-38151	,	-23487	,	-25.941105	,	0
35,58	,	37999	,	-38156	,	-23479	,	-28.524351	,	0
35,58	,	38016	,	-38174	,	-23487	,	-31.307251	,	0
35,58	,	38048	,	-38180	,	-23488	,	-33.91549	,	0
35,58	,	38063	,	-38203	,	-23507	,	-36.15394	,	0
35,58	,	38079	,	-38206	,	-23513	,	-37.984196	,	0
35,58	,	38127	,	-38242	,	-23491	,	-40.410175	,	0
35,58	,	38143	,	-38251	,	-23513	,	-41.16999	,	0
35,58	,	38160	,	-38269	,	-23521	,	-41.847755	,	0
35,58	,	38192	,	-38269	,	-23524	,	-42.469643	,	0
35,58	,	38208	,	-38301	,	-23529	,	-42.968147	,	0
35,58	,	38224	,	-38304	,	-23533	,	-43.376648	,	0
35,58	,	38256	,	-38293	,	-23523	,	-43.65297	,	0
35,58	,	38272	,	-38285	,	-23524	,	-43.29998	,	0
35,58	,	38288	,	-38234	,	-23501	,	-41.3611	,	1
35,58	,	38320	,	-38196	,	-23495	,	-36.587906	,	4
35,58	,	38336	,	-38158	,	-23488	,	-27.871391	,	8
35,58	,	38352	,	-38121	,	-23480	,	-14.864418	,	13
35,58	,	38384	,	-38101	,	-23472	,	1.7814674	,	16
35,58	,	38399	,	-38102	,	-23469	,	20.434368	,	18
35,58	,	38416	,	-38077	,	-23468	,	38.81209	,	18
35,58	,	38431	,	-38061	,	-23462	,	54.829624	,	16
35,58	,	38463	,	-38058	,	-23463	,	67.14939	,	12
35,58	,	38495	,	-38063	,	-23458	,	77.90198	,	2
35,58	,	38527	,	-38086	,	-23453	,	75.87431	,	0
35,58	,	38543	,	-38086	,	-23456	,	69.28091	,	0
35,58	,	38559	,	-38097	,	-23455	,	58.928627	,	0
35,59	,	38592	,	-38086	,	-23453	,	46.10355	,	0
35,59	,	38607	,	-38074	,	-23447	,	32.4939	,	0
35,59	,	38623	,	-38065	,	-23449	,	19.915728	,	0
35,59	,	38655	,	-38078	,	-23461	,	9.745087	,	0
35,59	,	38671	,	-38092	,	-23468	,	2.3978271	,	0
35,59	,	38687	,	-38094	,	-23463	,	-2.5705843	,	0
35,59	,	38703	,	-38104	,	-23464	,	-5.890191	,	0
35,59	,	38736	,	-38128	,	-23464	,	-8.28464	,	0
35,59	,	38751	,	-38112	,	-23471	,	-10.37254	,	0
35,59	,	38767	,	-38114	,	-23474	,	-12.314787	,	0
35,59	,	38799	,	-38139	,	-23475	,	-13.935567	,	0
35,59	,	38815	,	-38152	,	-23481	,	-15.348287	,	0
35,59	,	38831	,	-38170	,	-23485	,	-16.995264	,	0
35,59	,	38863	,	-38178	,	-23490	,	-19.222538	,	0
35,59	,	38879	,	-38196	,	-23496	,	-22.093855	,	0
35,59	,	38895	,	-38220	,	-23496	,	-25.480892	,	0
35,59	,	38927	,	-38220	,	-23497	,	-29.163624	,	0
35,59	,	38943	,	-38217	,	-23506	,	-32.764477	,	0
35,59	,	38959	,	-38229	,	-23508	,	-35.746357	,	0
35,59	,	38975	,	-38226	,	-23524	,	-37.626675	,	0
35,59	,	39007	,	-38257	,	-23518	,	-38.240086	,	0
35,59	,	39023	,	-38272	,	-23504	,	-37.92884	,	0
35,59	,	39039	,	-38275	,	-23516	,	-37.307373	,	0
35,59	,	39071	,	-38308	,	-23529	,	-36.84463	,	0
35,59	,	39087	,	-38315	,	-23526	,	-36.8824	,	0
35,59	,	39103	,	-38335	,	-23535	,	-37.651012	,	0
35,59	,	39135	,	-38321	,	-23526	,	-39.00663	,	0
35,59	,	39151	,	-38302	,	-23531	,	-40.2134	,	0
35,59	,	39167	,	-38249	,	-23512	,	-39.900394	,	0
35,59	,	39199	,	-38209	,	-23496	,	-36.351067	,	3
35,59	,	39215	,	-38167	,	-23486	,	-28.186413	,	8
35,59	,	39231	,	-38133	,	-23484	,	-15.028389	,	13
35,59	,	39247	,	-38115	,	-23465	,	2.2867336	,	17
35,59	,	39295	,	-38083	,	-23468	,	41.513393	,	19
35,59	,	39311	,	-38076	,	-23465	,	58.842766	,	17
35,59	,	39343	,	-38068	,	-23462	,	72.142204	,	13
35,59	,	39359	,	-38058	,	-23456	,	80.40785	,	8
35,59	,	39375	,	-38069	,	-23458	,	83.39911	,	2
35,59	,	39407	,	-38090	,	-23462	,	81.276474	,	0
35,59	,	39423	,	-38067	,	-23451	,	74.5078	,	0
35,59	,	39439	,	-38074	,	-23455	,	64.20999	,	0
35,59	,	39455	,	-38084	,	-23459	,	51.927376	,	0
35,59	,	39487	,	-38060	,	-23464	,	39.113857	,	0
35,59	,	39503	,	-38073	,	-23454	,	27.08428	,	0
35,59	,	39519	,	-38086	,	-23440	,	16.74565	,	0
35,59	,	39551	,	-38080	,	-23458	,	8.335575	,	0
36,0	,	39567	,	-38104	,	-23457	,	1.7071877	,	0
36,0	,	39583	,	-38102	,	-23464	,	-3.4777737	,	0
36,0	,	39615	,	-38117	,	-23475	,	-7.640993	,	0
36,0	,	39631	,	-38101	,	-23474	,	-11.015359	,	0
36,0	,	39647	,	-38129	,	-23475	,	-13.610059	,	0
36,0	,	39679	,	-38138	,	-23479	,	-15.562193	,	0
36,0	,	39711	,	-38146	,	-23483	,	-18.53314	,	0
36,0	,	39726	,	-38159	,	-23483	,	-19.641163	,	0
36,0	,	39759	,	-38181	,	-23493	,	-20.725468	,	0
36,0	,	39775	,	-38184	,	-23489	,	-22.133205	,	0
36,0	,	39791	,	-38193	,	-23489	,	-23.982067	,	0
36,0	,	39823	,	-38211	,	-23499	,	-26.120922	,	0
36,0	,	39839	,	-38211	,	-23500	,	-28.339964	,	0
36,0	,	39871	,	-38218	,	-23507	,	-30.370562	,	0
36,0	,	39887	,	-38236	,	-23521	,	-31.929916	,	0
36,0	,	39903	,	-38256	,	-23517	,	-33.011257	,	0
36,0	,	39919	,	-38249	,	-23524	,	-33.822556	,	0
36,0	,	39951	,	-38277	,	-23521	,	-34.465736	,	0
36,0	,	39967	,	-38264	,	-23515	,	-34.907986	,	0
36,0	,	39983	,	-38292	,	-23537	,	-35.06764	,	0
36,0	,	40014	,	-38285	,	-23530	,	-34.89411	,	0
36,0	,	40030	,	-38258	,	-23493	,	-34.19004	,	0
36,0	,	40046	,	-38178	,	-23489	,	-31.982563	,	2
36,0	,	40094	,	-38083	,	-23465	,	-16.166492	,	10
36,0	,	40110	,	-38061	,	-23455	,	-0.70141506	,	15
36,0	,	40143	,	-38041	,	-23457	,	18.75183	,	19
36,0	,	40159	,	-38024	,	-23442	,	39.865784	,	21
36,0	,	40174	,	-38018	,	-23438	,	59.904312	,	20
36,0	,	40191	,	-38004	,	-23433	,	76.46959	,	16
36,0	,	40222	,	-37970	,	-23429	,	88.092026	,	11
36,0	,	40239	,	-37993	,	-23439	,	94.36345	,	6
36,0	,	40254	,	-38006	,	-23436	,	95.255264	,	0
36,0	,	40286	,	-38003	,	-23431	,	90.79399	,	0
36,0	,	40302	,	-38010	,	-23445	,	81.5524	,	0
36,0	,	40318	,	-37999	,	-23433	,	68.83932	,	0
36,0	,	40351	,	-37988	,	-23435	,	54.44334	,	0
36,0	,	40366	,	-37987	,	-23432	,	40.247364	,	0
36,0	,	40382	,	-37968	,	-23448	,	27.799465	,	0
36,0	,	40414	,	-37996	,	-23450	,	17.996023	,	0
36,0	,	40430	,	-38009	,	-23434	,	10.79001	,	0
36,0	,	40446	,	-38017	,	-23429	,	5.369776	,	0
36,0	,	40462	,	-38010	,	-23428	,	0.94789505	,	0
36,0	,	40494	,	-38031	,	-23455	,	-2.8429532	,	0
36,0	,	40510	,	-38063	,	-23452	,	-6.355046	,	0
36,0	,	40526	,	-38068	,	-23455	,	-10.174625	,	0
36,0	,	40558	,	-38068	,	-23456	,	-14.609475	,	0
36,0	,	40574	,	-38087	,	-23451	,	-19.372934	,	0
36,1	,	40590	,	-38104	,	-23457	,	-24.042732	,	0
36,1	,	40622	,	-38106	,	-23470	,	-28.374146	,	0
36,1	,	40638	,	-38124	,	-23469	,	-32.154354	,	0
36,1	,	40654	,	-38125	,	-23469	,	-35.167675	,	0
36,1	,	40670	,	-38131	,	-23481	,	-37.221893	,	0
36,1	,	40702	,	-38141	,	-23482	,	-38.160053	,	0
36,1	,	40718	,	-38140	,	-23486	,	-37.959023	,	0
36,1	,	40734	,	-38182	,	-23499	,	-36.87919	,	1
36,1	,	40766	,	-38186	,	-23489	,	-35.575188	,	1
36,1	,	40782	,	-38207	,	-23499	,	-34.767635	,	0
36,1	,	40798	,	-38207	,	-23503	,	-34.76451	,	0
36,1	,	40830	,	-38228	,	-23503	,	-35.450714	,	0
36,1	,	40862	,	-38159	,	-23493	,	-37.039757	,	0
36,1	,	40894	,	-38130	,	-23496	,	-35.512177	,	1
36,1	,	40910	,	-38092	,	-23481	,	-30.20707	,	5
36,1	,	40926	,	-38072	,	-23449	,	-20.401257	,	9
36,1	,	40942	,	-38032	,	-23430	,	-6.547722	,	13
36,1	,	40974	,	-37998	,	-23428	,	10.210567	,	16
36,1	,	40990	,	-37957	,	-23410	,	28.554905	,	18
36,1	,	41006	,	-37930	,	-23412	,	47.185555	,	18
36,1	,	41038	,	-37915	,	-23409	,	64.75779	,	17
36,1	,	41054	,	-37895	,	-23400	,	79.86945	,	15
36,1	,	41070	,	-37904	,	-23412	,	91.216965	,	11
36,1	,	41102	,	-37906	,	-23409	,	97.70655	,	6
36,1	,	41118	,	-37886	,	-23417	,	98.75899	,	1
36,1	,	41134	,	-37911	,	-23417	,	94.61621	,	0
36,1	,	41166	,	-37890	,	-23408	,	86.11342	,	0
36,1	,	41182	,	-37903	,	-23406	,	74.445114	,	0
36,1	,	41198	,	-37899	,	-23407	,	61.00221	,	0
36,1	,	41214	,	-37918	,	-23405	,	47.009274	,	0
36,1	,	41246	,	-37912	,	-23406	,	33.374725	,	0
36,1	,	41262	,	-37914	,	-23410	,	20.848913	,	0
36,1	,	41278	,	-37934	,	-23415	,	10.015215	,	0
36,1	,	41310	,	-37944	,	-23412	,	1.0154886	,	0
36,1	,	41326	,	-37945	,	-23418	,	-6.353327	,	0
36,1	,	41342	,	-37949	,	-23419	,	-12.224599	,	0
36,1	,	41374	,	-37966	,	-23430	,	-16.650833	,	0
36,1	,	41390	,	-37979	,	-23429	,	-19.877415	,	0
36,1	,	41406	,	-37979	,	-23453	,	-22.284027	,	0
36,1	,	41438	,	-38005	,	-23439	,	-24.167786	,	0
36,1	,	41454	,	-38016	,	-23430	,	-25.828762	,	0
36,1	,	41470	,	-38029	,	-23445	,	-27.584406	,	0
36,1	,	41486	,	-38070	,	-23461	,	-29.715706	,	0
36,1	,	41518	,	-38065	,	-23463	,	-32.500168	,	0
36,1	,	41534	,	-38084	,	-23459	,	-35.91594	,	0
36,1	,	41550	,	-38097	,	-23463	,	-39.53853	,	0
36,2	,	41582	,	-38113	,	-23468	,	-42.92191	,	0
36,2	,	41597	,	-38134	,	-23474	,	-45.824547	,	0
36,2	,	41614	,	-38142	,	-23485	,	-48.171265	,	0
36,2	,	41661	,	-38166	,	-23488	,	-51.018665	,	0
36,2	,	41678	,	-38168	,	-23494	,	-51.340515	,	0
36,2	,	41694	,	-38144	,	-23480	,	-50.5514	,	0
36,2	,	41725	,	-38124	,	-23462	,	-47.97396	,	2
36,2	,	41742	,	-38072	,	-23458	,	-42.69879	,	5
36,2	,	41757	,	-38040	,	-23450	,	-33.845898	,	8
36,2	,	41790	,	-37993	,	-23436	,	-20.962805	,	12
36,2	,	41806	,	-37974	,	-23439	,	-4.389715	,	16
36,2	,	41822	,	-37950	,	-23432	,	14.629337	,	19
36,2	,	41854	,	-37927	,	-23411	,	34.23458	,	19
36,2	,	41869	,	-37908	,	-23417	,	52.52746	,	18
36,2	,	41886	,	-37881	,	-23399	,	68.02204	,	15
36,2	,	41917	,	-37851	,	-23414	,	79.90941	,	11
36,2	,	41934	,	-37849	,	-23408	,	87.99844	,	8
36,2	,	41949	,	-37858	,	-23389	,	92.194626	,	4
36,2	,	41981	,	-37856	,	-23407	,	92.237724	,	0
36,2	,	41998	,	-37876	,	-23402	,	87.988235	,	0
36,2	,	42013	,	-37873	,	-23408	,	79.68582	,	0
36,2	,	42045	,	-37865	,	-23404	,	68.13574	,	0
36,2	,	42078	,	-37872	,	-23396	,	40.928658	,	0
36,2	,	42109	,	-37882	,	-23406	,	27.902521	,	0
36,2	,	42126	,	-37889	,	-23407	,	16.30639	,	0
36,2	,	42142	,	-37896	,	-23412	,	6.420313	,	0
36,2	,	42157	,	-37907	,	-23415	,	-1.7291479	,	0
36,2	,	42190	,	-37929	,	-23416	,	-8.35271	,	0
36,2	,	42206	,	-37933	,	-23429	,	-13.848624	,	0
36,2	,	42221	,	-37944	,	-23425	,	-18.536245	,	0
36,2	,	42253	,	-37965	,	-23429	,	-22.571653	,	0
36,2	,	42269	,	-37990	,	-23436	,	-26.197226	,	0
36,2	,	42285	,	-37980	,	-23438	,	-29.671444	,	0
36,2	,	42317	,	-38003	,	-23455	,	-32.92091	,	0
36,2	,	42333	,	-38011	,	-23459	,	-35.69027	,	0
36,2	,	42349	,	-38037	,	-23436	,	-37.92182	,	0
36,2	,	42381	,	-38045	,	-23436	,	-39.76296	,	0
36,2	,	42397	,	-38063	,	-23455	,	-41.36889	,	0
36,2	,	42413	,	-38090	,	-23469	,	-42.875557	,	0
36,2	,	42429	,	-38093	,	-23469	,	-44.439964	,	0
36,2	,	42461	,	-38122	,	-23473	,	-46.118885	,	0
36,2	,	42477	,	-38121	,	-23477	,	-47.816067	,	0
36,2	,	42493	,	-38144	,	-23488	,	-49.32795	,	0
36,2	,	42525	,	-38171	,	-23486	,	-50.53125	,	0
36,2	,	42541	,	-38164	,	-23493	,	-51.471916	,	0
36,2	,	42557	,	-38180	,	-23493	,	-52.04535	,	0
36,3	,	42589	,	-38170	,	-23489	,	-51.889046	,	0
36,3	,	42605	,	-38114	,	-23474	,	-50.295685	,	1
36,3	,	42621	,	-38072	,	-23460	,	-45.937138	,	4
36,3	,	42653	,	-38042	,	-23460	,	-37.414753	,	8
36,3	,	42669	,	-38004	,	-23443	,	-24.244312	,	13
36,3	,	42685	,	-37991	,	-23441	,	-7.145815	,	17
36,3	,	42701	,	-37960	,	-23436	,	12.238981	,	19
36,3	,	42733	,	-37939	,	-23426	,	31.921429	,	19
36,3	,	42749	,	-37925	,	-23414	,	50.081974	,	18
36,3	,	42765	,	-37909	,	-23411	,	65.238266	,	15
36,3	,	42797	,	-37889	,	-23423	,	76.408745	,	11
36,3	,	42813	,	-37885	,	-23414	,	83.23121	,	6
36,3	,	42829	,	-37896	,	-23426	,	85.697	,	2
36,3	,	42862	,	-37901	,	-23405	,	83.84473	,	0
36,3	,	42877	,	-37901	,	-23409	,	77.89688	,	0
36,3	,	42893	,	-37899	,	-23417	,	68.563286	,	0
36,3	,	42909	,	-37900	,	-23409	,	57.00715	,	0
36,3	,	42941	,	-37910	,	-23412	,	44.493233	,	0
36,3	,	42957	,	-37918	,	-23407	,	32.042454	,	0
36,3	,	42973	,	-37917	,	-23417	,	20.375465	,	0
36,3	,	43005	,	-37923	,	-23417	,	10.05035	,	0
36,3	,	43021	,	-37933	,	-23412	,	1.4309063	,	0
36,3	,	43037	,	-37941	,	-23418	,	-5.4352217	,	0
36,3	,	43069	,	-37936	,	-23424	,	-10.675857	,	0
36,3	,	43085	,	-37958	,	-23422	,	-14.440727	,	0
36,3	,	43101	,	-37982	,	-23431	,	-17.123621	,	0
36,3	,	43133	,	-37977	,	-23435	,	-19.358467	,	0
36,3	,	43149	,	-37997	,	-23436	,	-21.548649	,	0
36,3	,	43165	,	-38008	,	-23435	,	-23.794094	,	0
36,3	,	43181	,	-38025	,	-23448	,	-26.155514	,	0
36,3	,	43213	,	-38035	,	-23449	,	-28.670204	,	0
36,3	,	43245	,	-38067	,	-23457	,	-34.021362	,	0
36,3	,	43277	,	-38076	,	-23457	,	-36.70536	,	0
36,3	,	43293	,	-38102	,	-23462	,	-39.216995	,	0
36,3	,	43309	,	-38111	,	-23468	,	-41.505173	,	0
36,3	,	43341	,	-38117	,	-23484	,	-43.527477	,	0
36,3	,	43357	,	-38126	,	-23470	,	-45.068596	,	0
36,3	,	43373	,	-38132	,	-23455	,	-45.840958	,	0
36,3	,	43405	,	-38150	,	-23485	,	-45.70948	,	0
36,3	,	43421	,	-38170	,	-23489	,	-44.859962	,	0
36,3	,	43437	,	-38195	,	-23494	,	-43.80819	,	1
36,3	,	43453	,	-38191	,	-23498	,	-43.07191	,	0
36,3	,	43485	,	-38184	,	-23492	,	-42.654617	,	0
36,3	,	43501	,	-38130	,	-23474	,	-41.71392	,	0
36,3	,	43517	,	-38101	,	-23467	,	-38.701897	,	3
36,3	,	43548	,	-38058	,	-23447	,	-32.092873	,	6
36,3	,	43565	,	-38028	,	-23447	,	-21.15438	,	10
36,4	,	43581	,	-38013	,	-23445	,	-6.27195	,	14
36,4	,	43612	,	-37988	,	-23439	,	11.131948	,	17
36,4	,	43629	,	-37987	,	-23429	,	29.050854	,	17
36,4	,	43645	,	-37931	,	-23427	,	45.49982	,	16
36,4	,	43677	,	-37931	,	-23421	,	59.10822	,	13
36,4	,	43693	,	-37934	,	-23414	,	69.24643	,	10
36,4	,	43708	,	-37921	,	-23406	,	75.59799	,	6
36,4	,	43724	,	-37942	,	-23419	,	77.920685	,	2
36,4	,	43757	,	-37948	,	-23416	,	76.04651	,	0
36,4	,	43773	,	-37940	,	-23414	,	70.10959	,	0
36,4	,	43789	,	-37933	,	-23418	,	60.94825	,	0
36,4	,	43821	,	-37934	,	-23412	,	49.974342	,	0
36,4	,	43837	,	-37962	,	-23424	,	38.47278	,	0
36,4	,	43868	,	-37953	,	-23417	,	27.182432	,	0
36,4	,	43884	,	-37951	,	-23409	,	16.635288	,	0
36,4	,	43901	,	-37960	,	-23414	,	7.4414387	,	0
36,4	,	43917	,	-37973	,	-23424	,	-0.041106224	,	0
36,4	,	43948	,	-37977	,	-23416	,	-5.89733	,	0
36,4	,	43965	,	-37988	,	-23417	,	-10.414356	,	0
36,4	,	43980	,	-37991	,	-23428	,	-13.868022	,	0
36,4	,	44028	,	-38016	,	-23430	,	-18.5629	,	0
36,4	,	44044	,	-38019	,	-23451	,	-20.325384	,	0
36,4	,	44076	,	-38039	,	-23449	,	-21.934643	,	0
36,4	,	44092	,	-38050	,	-23451	,	-23.52344	,	0
36,4	,	44108	,	-38064	,	-23459	,	-25.254461	,	0
36,4	,	44124	,	-38082	,	-23453	,	-27.241785	,	0
36,4	,	44156	,	-38084	,	-23461	,	-29.493029	,	0
36,4	,	44172	,	-38100	,	-23477	,	-31.84555	,	0
36,4	,	44188	,	-38119	,	-23475	,	-34.09214	,	0
36,4	,	44220	,	-38122	,	-23479	,	-36.135483	,	0
36,4	,	44236	,	-38129	,	-23494	,	-37.841385	,	0
36,4	,	44253	,	-38144	,	-23493	,	-39.000385	,	0
36,4	,	44284	,	-38161	,	-23477	,	-39.5735	,	0
36,4	,	44300	,	-38176	,	-23473	,	-39.778786	,	0
36,4	,	44316	,	-38180	,	-23495	,	-39.86722	,	0
36,4	,	44348	,	-38197	,	-23505	,	-39.917244	,	0
36,4	,	44364	,	-38201	,	-23504	,	-39.8846	,	0
36,4	,	44380	,	-38211	,	-23503	,	-39.68811	,	0
36,4	,	44396	,	-38174	,	-23488	,	-39.020348	,	0
36,4	,	44428	,	-38089	,	-23471	,	-36.940243	,	2
36,4	,	44460	,	-38053	,	-23456	,	-22.888685	,	9
36,4	,	44492	,	-38021	,	-23455	,	-9.552832	,	13
36,4	,	44508	,	-38023	,	-23446	,	7.0633945	,	16
36,4	,	44524	,	-37990	,	-23439	,	25.033264	,	17
36,4	,	44556	,	-37990	,	-23426	,	42.19341	,	17
36,4	,	44572	,	-37968	,	-23438	,	56.76155	,	14
36,5	,	44588	,	-37961	,	-23429	,	67.57354	,	10
36,5	,	44620	,	-37960	,	-23426	,	74.0963	,	6
36,5	,	44636	,	-37960	,	-23425	,	76.22375	,	2
36,5	,	44652	,	-37967	,	-23433	,	74.139915	,	0
36,5	,	44668	,	-37986	,	-23436	,	68.243515	,	0
36,5	,	44700	,	-37973	,	-23427	,	59.151073	,	0
36,5	,	44716	,	-37979	,	-23436	,	47.890934	,	0
36,5	,	44732	,	-37986	,	-23443	,	35.76228	,	0
36,5	,	44764	,	-37983	,	-23444	,	23.915316	,	0
36,5	,	44780	,	-37975	,	-23435	,	13.283407	,	0
36,5	,	44796	,	-37997	,	-23417	,	4.540209	,	0
36,5	,	44828	,	-38000	,	-23442	,	-2.1735106	,	0
36,5	,	44844	,	-38019	,	-23451	,	-7.21722	,	0
36,5	,	44860	,	-38024	,	-23449	,	-11.126533	,	0
36,5	,	44892	,	-38050	,	-23450	,	-14.432741	,	0
36,5	,	44908	,	-38059	,	-23457	,	-17.62539	,	0
36,5	,	44924	,	-38065	,	-23457	,	-20.985077	,	0
36,5	,	44940	,	-38056	,	-23455	,	-24.32814	,	0
36,5	,	44972	,	-38070	,	-23459	,	-27.111027	,	0
36,5	,	44988	,	-38076	,	-23471	,	-28.912083	,	0
36,5	,	45004	,	-38111	,	-23470	,	-29.81424	,	0
36,5	,	45035	,	-38113	,	-23474	,	-30.350925	,	0
36,5	,	45052	,	-38122	,	-23478	,	-31.003212	,	0
36,5	,	45068	,	-38128	,	-23485	,	-31.83237	,	0
36,5	,	45100	,	-38140	,	-23488	,	-32.650818	,	0
36,5	,	45116	,	-38160	,	-23488	,	-33.351334	,	0
36,5	,	45132	,	-38173	,	-23507	,	-34.040237	,	0
36,5	,	45147	,	-38196	,	-23506	,	-34.94863	,	0
36,5	,	45180	,	-38201	,	-23507	,	-36.248867	,	0
36,5	,	45211	,	-38215	,	-23507	,	-38.839024	,	0
36,5	,	45243	,	-38234	,	-23527	,	-39.22633	,	0
36,5	,	45260	,	-38235	,	-23536	,	-39.153015	,	0
36,5	,	45276	,	-38249	,	-23521	,	-38.88389	,	0
36,5	,	45307	,	-38198	,	-23494	,	-38.20056	,	0
36,5	,	45324	,	-38168	,	-23492	,	-36.113472	,	2
36,5	,	45340	,	-38089	,	-23467	,	-30.99748	,	5
36,5	,	45371	,	-38061	,	-23463	,	-21.309353	,	9
36,5	,	45387	,	-38040	,	-23456	,	-6.61714	,	14
36,5	,	45404	,	-38029	,	-23453	,	11.803898	,	18
36,5	,	45420	,	-38021	,	-23457	,	31.469126	,	19
36,5	,	45451	,	-38002	,	-23452	,	49.718803	,	18
36,5	,	45468	,	-37992	,	-23437	,	64.52487	,	14
36,5	,	45483	,	-37976	,	-23440	,	74.7948	,	10
36,5	,	45515	,	-37997	,	-23441	,	80.13781	,	5
36,5	,	45532	,	-38003	,	-23444	,	80.4306	,	0
36,5	,	45547	,	-38014	,	-23447	,	75.77036	,	0
36,6	,	45579	,	-38015	,	-23437	,	66.775314	,	0
36,6	,	45611	,	-38015	,	-23448	,	41.124023	,	0
36,6	,	45643	,	-38006	,	-23440	,	27.69615	,	0
36,6	,	45660	,	-38021	,	-23445	,	15.6646805	,	0
36,6	,	45676	,	-38020	,	-23447	,	5.7404633	,	0
36,6	,	45691	,	-38005	,	-23446	,	-1.7835226	,	0
36,6	,	45723	,	-38033	,	-23447	,	-6.846684	,	0
36,6	,	45739	,	-38024	,	-23460	,	-9.780684	,	0
36,6	,	45755	,	-38047	,	-23476	,	-11.251524	,	0
36,6	,	45787	,	-38041	,	-23469	,	-11.941462	,	0
36,6	,	45803	,	-38061	,	-23444	,	-12.3894	,	0
36,6	,	45819	,	-38070	,	-23466	,	-13.0084915	,	0
36,6	,	45851	,	-38085	,	-23468	,	-14.1425495	,	0
36,6	,	45867	,	-38109	,	-23478	,	-16.055992	,	0
36,6	,	45883	,	-38130	,	-23484	,	-18.96959	,	0
36,6	,	45915	,	-38140	,	-23480	,	-22.976982	,	0
36,6	,	45931	,	-38147	,	-23487	,	-27.80144	,	0
36,6	,	45947	,	-38146	,	-23487	,	-32.749	,	0
36,6	,	45979	,	-38165	,	-23494	,	-37.003395	,	0
36,6	,	46011	,	-38171	,	-23507	,	-41.46299	,	0
36,6	,	46043	,	-38190	,	-23499	,	-41.420036	,	0
36,6	,	46059	,	-38211	,	-23510	,	-40.322067	,	1
36,6	,	46075	,	-38234	,	-23510	,	-38.96654	,	1
36,6	,	46107	,	-38239	,	-23519	,	-38.087036	,	0
36,6	,	46123	,	-38256	,	-23524	,	-38.003727	,	0
36,6	,	46139	,	-38262	,	-23521	,	-38.616646	,	0
36,6	,	46155	,	-38235	,	-23515	,	-39.418724	,	0
36,6	,	46187	,	-38195	,	-23510	,	-39.263035	,	0
36,6	,	46203	,	-38147	,	-23472	,	-36.46438	,	2
36,6	,	46219	,	-38121	,	-23461	,	-29.542088	,	6
36,6	,	46251	,	-38073	,	-23468	,	-17.943993	,	11
36,6	,	46267	,	-38026	,	-23447	,	-2.0448208	,	15
36,6	,	46283	,	-38002	,	-23454	,	17.143818	,	19
36,6	,	46315	,	-38004	,	-23448	,	37.840252	,	20
36,6	,	46331	,	-37978	,	-23434	,	57.590157	,	19
36,6	,	46347	,	-37965	,	-23436	,	74.12963	,	16
36,6	,	46363	,	-37946	,	-23437	,	86.08991	,	11
36,6	,	46395	,	-37964	,	-23430	,	92.8707	,	6
36,6	,	46411	,	-37978	,	-23438	,	94.15044	,	1
36,6	,	46427	,	-37979	,	-23439	,	89.843994	,	0
36,6	,	46459	,	-37950	,	-23442	,	80.681076	,	0
36,6	,	46475	,	-37981	,	-23432	,	68.29614	,	0
36,6	,	46491	,	-37970	,	-23436	,	54.387054	,	0
36,6	,	46523	,	-37976	,	-23432	,	40.27161	,	0
36,6	,	46539	,	-37985	,	-23440	,	27.010206	,	0
36,6	,	46555	,	-37964	,	-23432	,	15.422064	,	0
36,7	,	46587	,	-37981	,	-23440	,	6.1193504	,	0
36,7	,	46603	,	-37978	,	-23444	,	-0.64108276	,	0
36,7	,	46619	,	-37992	,	-23441	,	-5.106674	,	0
36,7	,	46635	,	-37998	,	-23445	,	-7.852338	,	0
36,7	,	46667	,	-38019	,	-23474	,	-9.605902	,	0
36,7	,	46683	,	-38029	,	-23469	,	-11.130648	,	0
36,7	,	46699	,	-38044	,	-23452	,	-13.039213	,	0
36,7	,	46731	,	-38047	,	-23454	,	-15.596207	,	0
36,7	,	46747	,	-38048	,	-23470	,	-18.62073	,	0
36,7	,	46763	,	-38076	,	-23472	,	-21.715391	,	0
36,7	,	46811	,	-38103	,	-23483	,	-27.931782	,	0
36,7	,	46827	,	-38120	,	-23482	,	-31.274261	,	0
36,7	,	46859	,	-38134	,	-23485	,	-34.61529	,	0
36,7	,	46875	,	-38148	,	-23488	,	-37.771408	,	0
36,7	,	46891	,	-38166	,	-23485	,	-40.613277	,	0
36,7	,	46906	,	-38160	,	-23496	,	-42.985382	,	0
36,7	,	46939	,	-38176	,	-23497	,	-44.599895	,	0
36,7	,	46955	,	-38209	,	-23502	,	-45.32179	,	0
36,7	,	46971	,	-38221	,	-23508	,	-45.51115	,	0
36,7	,	47003	,	-38224	,	-23509	,	-45.63968	,	0
36,7	,	47019	,	-38212	,	-23502	,	-45.667347	,	0
36,7	,	47035	,	-38168	,	-23488	,	-44.809044	,	0
36,7	,	47066	,	-38121	,	-23464	,	-41.61976	,	3
36,7	,	47083	,	-38063	,	-23459	,	-34.455727	,	7
36,7	,	47099	,	-38035	,	-23456	,	-22.266256	,	12
36,7	,	47130	,	-38005	,	-23446	,	-5.278593	,	16
36,7	,	47147	,	-37980	,	-23424	,	14.982273	,	20
36,7	,	47163	,	-37942	,	-23440	,	36.380646	,	21
36,7	,	47179	,	-37935	,	-23443	,	56.821156	,	20
36,7	,	47210	,	-37911	,	-23420	,	74.460815	,	17
36,7	,	47226	,	-37899	,	-23408	,	87.89904	,	13
36,7	,	47243	,	-37876	,	-23413	,	96.44438	,	8
36,7	,	47275	,	-37886	,	-23419	,	100.038216	,	3
36,7	,	47291	,	-37889	,	-23417	,	98.86449	,	0
36,7	,	47307	,	-37901	,	-23421	,	93.173645	,	0
36,7	,	47339	,	-37908	,	-23427	,	83.43982	,	0
36,7	,	47354	,	-37900	,	-23410	,	70.563774	,	0
36,7	,	47370	,	-37908	,	-23404	,	55.88847	,	0
36,7	,	47386	,	-37910	,	-23401	,	40.871994	,	0
36,7	,	47419	,	-37908	,	-23410	,	26.753384	,	0
36,7	,	47434	,	-37914	,	-23411	,	14.463289	,	0
36,7	,	47450	,	-37895	,	-23423	,	4.642458	,	0
36,7	,	47482	,	-37925	,	-23424	,	-2.4151154	,	0
36,7	,	47499	,	-37923	,	-23432	,	-6.987305	,	0
36,7	,	47515	,	-37934	,	-23426	,	-9.787764	,	0
36,7	,	47546	,	-37961	,	-23431	,	-11.613241	,	0
36,8	,	47578	,	-37978	,	-23427	,	-15.11499	,	0
36,8	,	47611	,	-37992	,	-23438	,	-17.479124	,	0
36,8	,	47626	,	-38009	,	-23427	,	-20.41621	,	0
36,8	,	47642	,	-38003	,	-23445	,	-23.834427	,	0
36,8	,	47658	,	-38021	,	-23457	,	-27.322083	,	0
36,8	,	47690	,	-38044	,	-23475	,	-30.494238	,	0
36,8	,	47706	,	-38057	,	-23466	,	-33.33024	,	0
36,8	,	47722	,	-38070	,	-23454	,	-35.964226	,	0
36,8	,	47754	,	-38084	,	-23467	,	-38.41483	,	0
36,8	,	47770	,	-38104	,	-23487	,	-40.649887	,	0
36,8	,	47786	,	-38114	,	-23482	,	-42.67475	,	0
36,8	,	47818	,	-38126	,	-23486	,	-44.448055	,	0
36,8	,	47834	,	-38140	,	-23486	,	-45.847576	,	0
36,8	,	47850	,	-38158	,	-23499	,	-46.80635	,	0
36,8	,	47882	,	-38186	,	-23501	,	-47.460304	,	0
36,8	,	47898	,	-38167	,	-23496	,	-47.96868	,	0
36,8	,	47914	,	-38126	,	-23482	,	-47.849064	,	0
36,8	,	47946	,	-38076	,	-23464	,	-45.63375	,	2
36,8	,	47978	,	-37983	,	-23449	,	-28.239763	,	11
36,8	,	48010	,	-37954	,	-23437	,	-11.796152	,	16
36,8	,	48026	,	-37942	,	-23430	,	8.535128	,	20
36,8	,	48042	,	-37907	,	-23412	,	30.461971	,	21
36,8	,	48074	,	-37890	,	-23407	,	51.546646	,	21
36,8	,	48090	,	-37878	,	-23404	,	69.792	,	18
36,8	,	48106	,	-37860	,	-23397	,	83.74758	,	13
36,8	,	48122	,	-37858	,	-23401	,	92.59457	,	8
36,8	,	48154	,	-37825	,	-23395	,	96.25278	,	3
36,8	,	48170	,	-37853	,	-23406	,	95.235855	,	0
36,8	,	48186	,	-37858	,	-23416	,	90.09725	,	0
36,8	,	48218	,	-37858	,	-23391	,	81.26245	,	0
36,8	,	48234	,	-37873	,	-23407	,	69.42987	,	0
36,8	,	48250	,	-37876	,	-23398	,	55.606224	,	0
36,8	,	48282	,	-37880	,	-23397	,	40.913345	,	0
36,8	,	48298	,	-37884	,	-23402	,	26.505249	,	0
36,8	,	48314	,	-37884	,	-23404	,	13.4186535	,	0
36,8	,	48346	,	-37881	,	-23405	,	2.4651127	,	0
36,8	,	48378	,	-37889	,	-23412	,	-11.530076	,	0
36,8	,	48394	,	-37908	,	-23406	,	-14.8753195	,	0
36,8	,	48426	,	-37919	,	-23413	,	-16.574013	,	0
36,8	,	48442	,	-37933	,	-23416	,	-17.467909	,	0
36,8	,	48458	,	-37969	,	-23417	,	-18.411654	,	0
36,8	,	48490	,	-37954	,	-23421	,	-20.079033	,	0
36,8	,	48506	,	-37970	,	-23436	,	-22.558926	,	0
36,8	,	48522	,	-37981	,	-23438	,	-25.424404	,	0
36,8	,	48554	,	-37990	,	-23436	,	-28.257866	,	0
36,8	,	48570	,	-38003	,	-23444	,	-30.80035	,	0
36,9	,	48586	,	-38023	,	-23458	,	-32.948696	,	0
36,9	,	48602	,	-38044	,	-23462	,	-34.839577	,	0
36,9	,	48634	,	-38043	,	-23444	,	-36.677937	,	0
36,9	,	48650	,	-38057	,	-23447	,	-38.42826	,	0
36,9	,	48666	,	-38071	,	-23468	,	-39.88057	,	0
36,9	,	48697	,	-38102	,	-23472	,	-41.020943	,	0
36,9	,	48713	,	-38122	,	-23468	,	-42.18004	,	0
36,9	,	48730	,	-38142	,	-23474	,	-43.779984	,	0
36,9	,	48762	,	-38143	,	-23482	,	-45.925926	,	0
36,9	,	48777	,	-38153	,	-23480	,	-48.234474	,	0
36,9	,	48794	,	-38125	,	-23478	,	-49.907257	,	0
36,9	,	48826	,	-38103	,	-23456	,	-49.800186	,	0
36,9	,	48842	,	-38043	,	-23437	,	-46.5421	,	3
36,9	,	48858	,	-38007	,	-23438	,	-38.850792	,	7
36,9	,	48874	,	-37970	,	-23430	,	-26.105242	,	12
36,9	,	48906	,	-37940	,	-23414	,	-8.807335	,	17
36,9	,	48922	,	-37920	,	-23414	,	11.506737	,	20
36,9	,	48937	,	-37906	,	-23406	,	32.659023	,	21
36,9	,	48970	,	-37891	,	-23405	,	52.312263	,	19
36,9	,	48986	,	-37874	,	-23396	,	68.53252	,	16
36,9	,	49002	,	-37859	,	-23386	,	80.17267	,	11
36,9	,	49034	,	-37848	,	-23383	,	86.892136	,	6
36,9	,	49049	,	-37846	,	-23382	,	88.90959	,	2
36,9	,	49066	,	-37876	,	-23393	,	86.57698	,	0
36,9	,	49097	,	-37871	,	-23398	,	80.13553	,	0
36,9	,	49113	,	-37863	,	-23409	,	70.134995	,	0
36,9	,	49130	,	-37861	,	-23378	,	57.8242	,	0
36,9	,	49146	,	-37877	,	-23374	,	44.6955	,	0
36,9	,	49177	,	-37869	,	-23394	,	31.903934	,	0
36,9	,	49193	,	-37876	,	-23394	,	20.262941	,	0
36,9	,	49209	,	-37875	,	-23392	,	10.359373	,	0
36,9	,	49241	,	-37892	,	-23401	,	2.4453087	,	0
36,9	,	49258	,	-37902	,	-23398	,	-3.6576777	,	0
36,9	,	49273	,	-37898	,	-23402	,	-8.346385	,	0
36,9	,	49305	,	-37931	,	-23408	,	-11.999218	,	0
36,9	,	49322	,	-37935	,	-23405	,	-15.079438	,	0
36,9	,	49337	,	-37951	,	-23404	,	-18.06643	,	0
36,9	,	49369	,	-37972	,	-23415	,	-21.24178	,	0
36,9	,	49385	,	-37970	,	-23406	,	-24.677252	,	0
36,9	,	49402	,	-37981	,	-23415	,	-28.153034	,	0
36,9	,	49417	,	-37985	,	-23428	,	-31.226746	,	0
36,9	,	49449	,	-38004	,	-23434	,	-33.560867	,	0
36,9	,	49465	,	-38009	,	-23428	,	-35.089417	,	0
36,9	,	49481	,	-38023	,	-23438	,	-35.920967	,	0
36,9	,	49513	,	-38042	,	-23438	,	-36.26297	,	0
36,9	,	49545	,	-38062	,	-23442	,	-36.545753	,	0
36,10	,	49577	,	-38067	,	-23453	,	-36.73401	,	0
36,10	,	49593	,	-38088	,	-23456	,	-36.941048	,	0
36,10	,	49609	,	-38096	,	-23474	,	-37.19131	,	0
36,10	,	49641	,	-38116	,	-23452	,	-37.56005	,	0
36,10	,	49657	,	-38133	,	-23454	,	-38.15725	,	0
36,10	,	49673	,	-38139	,	-23466	,	-39.070133	,	0
36,10	,	49689	,	-38150	,	-23482	,	-40.195786	,	0
36,10	,	49721	,	-38116	,	-23460	,	-41.045998	,	0
36,10	,	49737	,	-38063	,	-23445	,	-40.449368	,	0
36,10	,	49753	,	-38029	,	-23433	,	-36.676712	,	3
36,10	,	49785	,	-37976	,	-23431	,	-28.301546	,	8
36,10	,	49801	,	-37964	,	-23421	,	-14.977768	,	13
36,10	,	49817	,	-37925	,	-23415	,	2.3599567	,	17
36,10	,	49849	,	-37926	,	-23412	,	21.805975	,	19
36,10	,	49865	,	-37904	,	-23409	,	41.019505	,	19
36,10	,	49881	,	-37877	,	-23394	,	57.89263	,	16
36,10	,	49913	,	-37876	,	-23395	,	71.0741	,	13
36,10	,	49945	,	-37857	,	-23404	,	83.91237	,	4
36,10	,	49977	,	-37889	,	-23398	,	83.37259	,	0
36,10	,	49993	,	-37884	,	-23394	,	78.43422	,	0
36,10	,	50009	,	-37889	,	-23398	,	69.570786	,	0
36,10	,	50041	,	-37878	,	-23396	,	57.875446	,	0
36,10	,	50057	,	-37872	,	-23400	,	44.93426	,	0
36,10	,	50073	,	-37883	,	-23396	,	32.315235	,	0
36,10	,	50089	,	-37884	,	-23400	,	21.069641	,	0
36,10	,	50121	,	-37889	,	-23415	,	11.664633	,	0
36,10	,	50137	,	-37888	,	-23392	,	4.2346983	,	0
36,10	,	50153	,	-37898	,	-23381	,	-1.2882538	,	0
36,10	,	50185	,	-37898	,	-23405	,	-5.1556764	,	0
36,10	,	50201	,	-37926	,	-23380	,	-7.818589	,	0
36,10	,	50217	,	-37936	,	-23414	,	-9.957068	,	0
36,10	,	50249	,	-37941	,	-23407	,	-12.217131	,	0
36,10	,	50264	,	-37963	,	-23416	,	-14.899717	,	0
36,10	,	50280	,	-37961	,	-23423	,	-18.01958	,	0
36,10	,	50313	,	-37976	,	-23423	,	-21.381578	,	0
36,10	,	50344	,	-38010	,	-23436	,	-27.875433	,	0
36,10	,	50361	,	-38019	,	-23436	,	-30.915157	,	0
36,10	,	50393	,	-38039	,	-23438	,	-33.80882	,	0
36,10	,	50409	,	-38038	,	-23440	,	-36.4607	,	0
36,10	,	50425	,	-38058	,	-23450	,	-38.692684	,	0
36,10	,	50457	,	-38072	,	-23460	,	-40.383904	,	0
36,10	,	50473	,	-38082	,	-23452	,	-41.577034	,	0
36,10	,	50489	,	-38084	,	-23468	,	-42.293575	,	0
36,10	,	50521	,	-38109	,	-23486	,	-42.48365	,	0
36,10	,	50536	,	-38117	,	-23484	,	-42.24936	,	0
36,10	,	50553	,	-38128	,	-23476	,	-41.81407	,	0
36,11	,	50584	,	-38146	,	-23481	,	-41.34066	,	0
36,11	,	50600	,	-38151	,	-23491	,	-40.929756	,	0
36,11	,	50616	,	-38108	,	-23466	,	-40.330734	,	0
36,11	,	50632	,	-38064	,	-23451	,	-38.437897	,	1
36,11	,	50664	,	-38019	,	-23442	,	-33.54531	,	4
36,11	,	50681	,	-37997	,	-23435	,	-24.387264	,	9
36,11	,	50697	,	-37951	,	-23424	,	-10.851664	,	13
36,11	,	50729	,	-37942	,	-23418	,	6.0969934	,	16
36,11	,	50744	,	-37923	,	-23417	,	24.70475	,	18
36,11	,	50760	,	-37894	,	-23414	,	42.89246	,	18
36,11	,	50793	,	-37895	,	-23408	,	58.85972	,	15
36,11	,	50808	,	-37880	,	-23404	,	71.25146	,	12
36,11	,	50825	,	-37894	,	-23412	,	79.10522	,	7
36,11	,	50856	,	-37898	,	-23414	,	81.8544	,	2
36,11	,	50872	,	-37896	,	-23412	,	79.43403	,	0
36,11	,	50889	,	-37893	,	-23404	,	72.502495	,	0
36,11	,	50904	,	-37893	,	-23413	,	62.343845	,	0
36,11	,	50936	,	-37896	,	-23415	,	50.440945	,	0
36,11	,	50952	,	-37886	,	-23416	,	38.17885	,	0
36,11	,	50968	,	-37883	,	-23408	,	26.779669	,	0
36,11	,	51000	,	-37886	,	-23410	,	17.164497	,	0
36,11	,	51016	,	-37906	,	-23418	,	9.65568	,	0
36,11	,	51032	,	-37891	,	-23418	,	4.0150404	,	0
36,11	,	51064	,	-37907	,	-23405	,	-0.11596012	,	0
36,11	,	51080	,	-37921	,	-23404	,	-3.1213841	,	0
36,11	,	51096	,	-37942	,	-23422	,	-5.6175103	,	0
36,11	,	51112	,	-37970	,	-23424	,	-8.391464	,	0
36,11	,	51144	,	-37963	,	-23424	,	-12.032483	,	0
36,11	,	51160	,	-37973	,	-23426	,	-16.493801	,	0
36,11	,	51176	,	-38001	,	-23439	,	-21.280067	,	0
36,11	,	51208	,	-38004	,	-23445	,	-26.032078	,	0
36,11	,	51224	,	-38017	,	-23451	,	-30.516912	,	0
36,11	,	51240	,	-38024	,	-23450	,	-34.413116	,	0
36,11	,	51272	,	-38046	,	-23449	,	-37.47097	,	0
36,11	,	51288	,	-38056	,	-23449	,	-39.69409	,	0
36,11	,	51304	,	-38060	,	-23464	,	-41.197327	,	0
36,11	,	51336	,	-38061	,	-23463	,	-41.935547	,	0
36,11	,	51352	,	-38094	,	-23473	,	-41.845627	,	0
36,11	,	51368	,	-38093	,	-23467	,	-41.17375	,	0
36,11	,	51384	,	-38096	,	-23474	,	-40.227016	,	0
36,11	,	51416	,	-38116	,	-23481	,	-39.073944	,	1
36,11	,	51432	,	-38128	,	-23484	,	-37.81282	,	1
36,11	,	51448	,	-38152	,	-23489	,	-36.76216	,	1
36,11	,	51496	,	-38131	,	-23479	,	-36.04762	,	0
36,11	,	51512	,	-38080	,	-23482	,	-35.24842	,	0
36,11	,	51544	,	-38044	,	-23482	,	-32.1846	,	3
36,11	,	51560	,	-38004	,	-23439	,	-25.332142	,	6
36,12	,	51576	,	-37969	,	-23422	,	-14.046154	,	11
36,12	,	51608	,	-37962	,	-23431	,	1.1336756	,	15
36,12	,	51624	,	-37912	,	-23415	,	18.701504	,	17
36,12	,	51640	,	-37897	,	-23399	,	36.90165	,	18
36,12	,	51656	,	-37872	,	-23406	,	54.167572	,	17
36,12	,	51688	,	-37880	,	-23404	,	69.006004	,	14
36,12	,	51704	,	-37879	,	-23401	,	79.946724	,	10
36,12	,	51720	,	-37867	,	-23411	,	85.90145	,	5
36,12	,	51752	,	-37872	,	-23408	,	86.60204	,	0
36,12	,	51768	,	-37882	,	-23399	,	82.47031	,	0
36,12	,	51784	,	-37889	,	-23407	,	74.22603	,	0
36,12	,	51816	,	-37879	,	-23404	,	62.88386	,	0
36,12	,	51832	,	-37870	,	-23398	,	49.893627	,	0
36,12	,	51848	,	-37862	,	-23406	,	36.948788	,	0
36,12	,	51880	,	-37873	,	-23414	,	25.449818	,	0
36,12	,	51912	,	-37884	,	-23406	,	8.446264	,	0
36,12	,	51944	,	-37913	,	-23409	,	2.3945484	,	0
36,12	,	51960	,	-37926	,	-23417	,	-2.7161536	,	0
36,12	,	51976	,	-37921	,	-23410	,	-7.4305167	,	0
36,12	,	52008	,	-37929	,	-23422	,	-11.853984	,	0
36,12	,	52024	,	-37940	,	-23439	,	-15.758462	,	0
36,12	,	52040	,	-37960	,	-23440	,	-19.06319	,	0
36,12	,	52072	,	-37952	,	-23423	,	-21.869541	,	0
36,12	,	52088	,	-37974	,	-23418	,	-24.199356	,	0
36,12	,	52104	,	-37979	,	-23428	,	-26.046097	,	0
36,12	,	52120	,	-38014	,	-23443	,	-27.609674	,	0
36,12	,	52152	,	-38015	,	-23455	,	-29.27092	,	0
36,12	,	52167	,	-38042	,	-23455	,	-31.327953	,	0
36,12	,	52184	,	-38042	,	-23462	,	-33.8141	,	0
36,12	,	52216	,	-38053	,	-23454	,	-36.467754	,	0
36,12	,	52232	,	-38056	,	-23452	,	-38.811592	,	0
36,12	,	52248	,	-38074	,	-23461	,	-40.421738	,	0
36,12	,	52296	,	-38109	,	-23468	,	-41.42505	,	0
36,12	,	52312	,	-38120	,	-23469	,	-41.48289	,	0
36,12	,	52328	,	-38122	,	-23469	,	-41.58663	,	0
36,12	,	52360	,	-38129	,	-23468	,	-41.607475	,	0
36,12	,	52376	,	-38090	,	-23466	,	-41.039955	,	0
36,12	,	52391	,	-38023	,	-23453	,	-38.704758	,	2
36,12	,	52424	,	-37980	,	-23438	,	-32.792564	,	5
36,12	,	52440	,	-37936	,	-23440	,	-21.874224	,	10
36,12	,	52455	,	-37914	,	-23420	,	-5.880768	,	15
36,12	,	52488	,	-37879	,	-23405	,	13.851114	,	19
36,12	,	52503	,	-37855	,	-23393	,	35.20547	,	21
36,12	,	52520	,	-37835	,	-23396	,	55.943867	,	20
36,12	,	52551	,	-37800	,	-23380	,	74.16028	,	18
36,13	,	52567	,	-37766	,	-23384	,	88.695656	,	14
36,13	,	52584	,	-37785	,	-23375	,	99.02089	,	10
36,13	,	52600	,	-37791	,	-23370	,	104.548615	,	5
36,13	,	52631	,	-37802	,	-23384	,	104.56612	,	0
36,13	,	52648	,	-37795	,	-23380	,	98.915306	,	0
36,13	,	52663	,	-37794	,	-23389	,	88.4095	,	0
36,13	,	52695	,	-37792	,	-23383	,	74.61237	,	0
36,13	,	52711	,	-37771	,	-23385	,	59.407703	,	0
36,13	,	52727	,	-37783	,	-23377	,	44.627453	,	0
36,13	,	52759	,	-37797	,	-23380	,	31.504513	,	0
36,13	,	52775	,	-37801	,	-23376	,	20.392567	,	0
36,13	,	52792	,	-37796	,	-23385	,	11.216423	,	0
36,13	,	52823	,	-37808	,	-23384	,	3.9017305	,	0
36,13	,	52839	,	-37826	,	-23385	,	-1.7635031	,	0
36,13	,	52855	,	-37827	,	-23391	,	-6.246006	,	0
36,13	,	52871	,	-37840	,	-23398	,	-9.99364	,	0
36,13	,	52903	,	-37841	,	-23396	,	-13.239752	,	0
36,13	,	52919	,	-37862	,	-23404	,	-16.09904	,	0
36,13	,	52937	,	-37868	,	-23417	,	-18.710268	,	0
36,13	,	52967	,	-37881	,	-23408	,	-21.212498	,	0
36,13	,	52983	,	-37893	,	-23400	,	-23.662708	,	0
36,13	,	53000	,	-37923	,	-23411	,	-26.156849	,	0
36,13	,	53031	,	-37922	,	-23423	,	-28.870256	,	0
36,13	,	53047	,	-37940	,	-23430	,	-31.799915	,	0
36,13	,	53063	,	-37966	,	-23438	,	-34.79042	,	0
36,13	,	53095	,	-37971	,	-23443	,	-37.781593	,	0
36,13	,	53111	,	-37992	,	-23447	,	-40.70346	,	0
36,13	,	53127	,	-38013	,	-23450	,	-43.439617	,	0
36,13	,	53143	,	-38006	,	-23454	,	-45.873344	,	0
36,13	,	53175	,	-38018	,	-23460	,	-47.688293	,	0
36,13	,	53191	,	-38036	,	-23461	,	-48.52185	,	0
36,13	,	53207	,	-38052	,	-23461	,	-48.37728	,	0
36,13	,	53239	,	-38052	,	-23460	,	-47.52806	,	0
36,13	,	53255	,	-38002	,	-23433	,	-45.86892	,	1
36,13	,	53271	,	-37954	,	-23437	,	-42.35234	,	3
36,13	,	53303	,	-37904	,	-23402	,	-35.334023	,	7
36,13	,	53319	,	-37872	,	-23410	,	-23.64785	,	11
36,13	,	53335	,	-37832	,	-23390	,	-7.335352	,	16
36,13	,	53367	,	-37803	,	-23382	,	12.4268875	,	19
36,13	,	53383	,	-37786	,	-23365	,	33.74346	,	21
36,13	,	53399	,	-37734	,	-23378	,	54.54243	,	20
36,13	,	53415	,	-37710	,	-23364	,	73.232216	,	18
36,13	,	53447	,	-37719	,	-23371	,	88.67354	,	15
36,13	,	53463	,	-37699	,	-23368	,	99.72218	,	11
36,13	,	53479	,	-37694	,	-23338	,	105.52202	,	5
36,13	,	53511	,	-37715	,	-23347	,	105.827774	,	0
36,13	,	53527	,	-37708	,	-23356	,	100.79291	,	0
36,13	,	53543	,	-37709	,	-23355	,	91.06547	,	0
36,14	,	53575	,	-37725	,	-23361	,	77.84778	,	0
36,14	,	53591	,	-37717	,	-23357	,	62.539013	,	0
36,14	,	53607	,	-37709	,	-23358	,	46.638546	,	0
36,14	,	53623	,	-37719	,	-23358	,	31.658485	,	0
36,14	,	53655	,	-37729	,	-23353	,	18.64364	,	0
36,14	,	53671	,	-37715	,	-23364	,	8.03862	,	0
36,14	,	53687	,	-37739	,	-23362	,	-0.042822838	,	0
36,14	,	53719	,	-37756	,	-23369	,	-5.905471	,	0
36,14	,	53735	,	-37754	,	-23367	,	-10.2446995	,	0
36,14	,	53751	,	-37774	,	-23375	,	-13.668683	,	0
36,14	,	53782	,	-37767	,	-23383	,	-16.496845	,	0
36,14	,	53799	,	-37780	,	-23375	,	-18.816566	,	0
36,14	,	53815	,	-37792	,	-23377	,	-20.634737	,	0
36,14	,	53846	,	-37807	,	-23383	,	-22.108976	,	0
36,14	,	53879	,	-37847	,	-23386	,	-25.045382	,	0
36,14	,	53911	,	-37847	,	-23397	,	-27.020859	,	0
36,14	,	53926	,	-37874	,	-23408	,	-29.550793	,	0
36,14	,	53943	,	-37897	,	-23417	,	-32.62915	,	0
36,14	,	53975	,	-37894	,	-23420	,	-36.169506	,	0
36,14	,	53991	,	-37920	,	-23406	,	-39.843094	,	0
36,14	,	54006	,	-37922	,	-23406	,	-43.19385	,	0
36,14	,	54039	,	-37933	,	-23423	,	-45.833458	,	0
36,14	,	54055	,	-37968	,	-23434	,	-47.575806	,	0
36,14	,	54071	,	-37966	,	-23435	,	-48.59012	,	0
36,14	,	54087	,	-37981	,	-23444	,	-49.10079	,	0
36,14	,	54119	,	-37983	,	-23428	,	-49.084454	,	0
36,14	,	54135	,	-37936	,	-23421	,	-48.127457	,	0
36,14	,	54151	,	-37887	,	-23402	,	-45.087154	,	3
36,14	,	54183	,	-37847	,	-23395	,	-38.373886	,	6
36,14	,	54199	,	-37824	,	-23393	,	-27.01919	,	11
36,14	,	54214	,	-37789	,	-23383	,	-11.335197	,	15
36,14	,	54263	,	-37739	,	-23369	,	26.882423	,	19
36,14	,	54278	,	-37709	,	-23361	,	45.6155	,	18
36,14	,	54311	,	-37709	,	-23360	,	61.93807	,	16
36,14	,	54327	,	-37696	,	-23348	,	74.68291	,	12
36,14	,	54343	,	-37687	,	-23359	,	83.15312	,	8
36,14	,	54359	,	-37700	,	-23367	,	87.050186	,	3
36,14	,	54391	,	-37705	,	-23336	,	86.25178	,	0
36,14	,	54406	,	-37702	,	-23336	,	80.92848	,	0
36,14	,	54423	,	-37727	,	-23346	,	71.71836	,	0
36,14	,	54455	,	-37716	,	-23349	,	59.589386	,	0
36,14	,	54471	,	-37714	,	-23350	,	45.829258	,	0
36,14	,	54486	,	-37728	,	-23354	,	31.91362	,	0
36,14	,	54518	,	-37723	,	-23346	,	19.02923	,	0
36,14	,	54534	,	-37727	,	-23353	,	7.9593277	,	0
36,14	,	54550	,	-37730	,	-23369	,	-0.80750847	,	0
36,15	,	54567	,	-37742	,	-23355	,	-7.1720486	,	0
36,15	,	54598	,	-37753	,	-23360	,	-11.474565	,	0
36,15	,	54615	,	-37748	,	-23364	,	-14.258487	,	0
36,15	,	54631	,	-37765	,	-23366	,	-15.970763	,	0
36,15	,	54678	,	-37753	,	-23367	,	-17.040646	,	0
36,15	,	54694	,	-37758	,	-23372	,	-16.396791	,	0
36,15	,	54726	,	-37790	,	-23376	,	-15.223814	,	1
36,15	,	54742	,	-37788	,	-23380	,	-14.213816	,	1
36,15	,	54758	,	-37804	,	-23377	,	-13.991116	,	0
36,15	,	54790	,	-37818	,	-23385	,	-14.815874	,	0
36,15	,	54806	,	-37843	,	-23388	,	-16.78053	,	0
36,15	,	54822	,	-37846	,	-23386	,	-19.88651	,	0
36,15	,	54838	,	-37863	,	-23402	,	-23.873085	,	0
36,15	,	54870	,	-37864	,	-23402	,	-28.21268	,	0
36,15	,	54886	,	-37901	,	-23412	,	-32.40161	,	0
36,15	,	54902	,	-37898	,	-23397	,	-36.214478	,	0
36,15	,	54934	,	-37930	,	-23412	,	-39.6023	,	0
36,15	,	54950	,	-37930	,	-23418	,	-42.528496	,	0
36,15	,	54966	,	-37954	,	-23415	,	-44.94283	,	0
36,15	,	54998	,	-37948	,	-23427	,	-46.731663	,	0
36,15	,	55014	,	-37918	,	-23406	,	-47.47472	,	0
36,15	,	55030	,	-37870	,	-23396	,	-46.114197	,	1
36,15	,	55062	,	-37833	,	-23387	,	-41.182693	,	4
36,15	,	55078	,	-37784	,	-23383	,	-31.563314	,	9
36,15	,	55094	,	-37775	,	-23365	,	-17.146503	,	14
36,15	,	55110	,	-37752	,	-23365	,	0.87420464	,	18
36,15	,	55142	,	-37744	,	-23369	,	20.334366	,	19
36,15	,	55158	,	-37715	,	-23364	,	38.935093	,	18
36,15	,	55174	,	-37692	,	-23353	,	54.97636	,	16
36,15	,	55206	,	-37689	,	-23350	,	67.50779	,	12
36,15	,	55222	,	-37688	,	-23348	,	75.9544	,	8
36,15	,	55238	,	-37695	,	-23347	,	79.87513	,	3
36,15	,	55270	,	-37697	,	-23348	,	79.09991	,	0
36,15	,	55286	,	-37722	,	-23361	,	73.82745	,	0
36,15	,	55302	,	-37707	,	-23345	,	64.6468	,	0
36,15	,	55334	,	-37718	,	-23345	,	52.667	,	0
36,15	,	55350	,	-37718	,	-23352	,	39.361477	,	0
36,15	,	55366	,	-37721	,	-23377	,	26.13193	,	0
36,15	,	55382	,	-37734	,	-23362	,	14.032511	,	0
36,15	,	55414	,	-37743	,	-23350	,	3.6271095	,	0
36,15	,	55430	,	-37759	,	-23357	,	-4.9878597	,	0
36,15	,	55446	,	-37746	,	-23362	,	-11.890814	,	0
36,15	,	55478	,	-37768	,	-23371	,	-17.089167	,	0
36,15	,	55494	,	-37780	,	-23372	,	-20.715523	,	0
36,15	,	55510	,	-37781	,	-23375	,	-23.157553	,	0
36,15	,	55542	,	-37803	,	-23381	,	-24.813923	,	0
36,15	,	55558	,	-37805	,	-23383	,	-26.01646	,	0
36,16	,	55574	,	-37831	,	-23382	,	-27.076143	,	0
36,16	,	55606	,	-37830	,	-23391	,	-28.238476	,	0
36,16	,	55622	,	-37836	,	-23398	,	-29.53146	,	0
36,16	,	55638	,	-37857	,	-23408	,	-30.772642	,	0
36,16	,	55654	,	-37866	,	-23410	,	-31.881039	,	0
36,16	,	55686	,	-37877	,	-23419	,	-32.924335	,	0
36,16	,	55702	,	-37889	,	-23417	,	-33.93062	,	0
36,16	,	55717	,	-37901	,	-23412	,	-34.88137	,	0
36,16	,	55749	,	-37929	,	-23420	,	-35.837692	,	0
36,16	,	55766	,	-37933	,	-23426	,	-36.976357	,	0
36,16	,	55782	,	-37947	,	-23426	,	-38.366016	,	0
36,16	,	55813	,	-37969	,	-23439	,	-39.89399	,	0
36,16	,	55846	,	-37978	,	-23442	,	-42.647263	,	0
36,16	,	55862	,	-37989	,	-23457	,	-43.29248	,	0
36,16	,	55894	,	-37978	,	-23448	,	-43.134743	,	0
36,16	,	55910	,	-37932	,	-23412	,	-41.70528	,	1
36,16	,	55941	,	-37925	,	-23399	,	-38.071957	,	3
36,16	,	55958	,	-37866	,	-23414	,	-31.33485	,	6
36,16	,	55974	,	-37815	,	-23384	,	-20.865246	,	10
36,16	,	56006	,	-37807	,	-23392	,	-6.4867554	,	14
36,16	,	56021	,	-37791	,	-23384	,	10.85306	,	17
36,16	,	56038	,	-37770	,	-23376	,	29.15651	,	18
36,16	,	56054	,	-37766	,	-23379	,	46.269497	,	17
36,16	,	56085	,	-37753	,	-23376	,	60.413387	,	14
36,16	,	56102	,	-37770	,	-23372	,	70.2798	,	9
36,16	,	56118	,	-37770	,	-23378	,	75.0219	,	4
36,16	,	56149	,	-37763	,	-23380	,	74.43812	,	0
36,16	,	56165	,	-37774	,	-23380	,	69.14267	,	0
36,16	,	56181	,	-37779	,	-23373	,	60.239567	,	0
36,16	,	56229	,	-37776	,	-23374	,	36.58575	,	0
36,16	,	56245	,	-37778	,	-23376	,	24.459984	,	0
36,16	,	56277	,	-37790	,	-23399	,	13.6308	,	0
36,16	,	56293	,	-37798	,	-23404	,	4.5986557	,	0
36,16	,	56309	,	-37806	,	-23382	,	-2.6306915	,	0
36,16	,	56325	,	-37813	,	-23369	,	-8.267193	,	0
36,16	,	56357	,	-37806	,	-23385	,	-12.496012	,	0
36,16	,	56373	,	-37854	,	-23396	,	-15.5604315	,	0
36,16	,	56390	,	-37835	,	-23406	,	-17.976458	,	0
36,16	,	56421	,	-37854	,	-23407	,	-20.168068	,	0
36,16	,	56437	,	-37856	,	-23407	,	-22.16357	,	0
36,16	,	56453	,	-37877	,	-23411	,	-23.915926	,	0
36,16	,	56485	,	-37874	,	-23416	,	-25.461334	,	0
36,16	,	56501	,	-37892	,	-23409	,	-26.800213	,	0
36,16	,	56517	,	-37893	,	-23414	,	-27.895401	,	0
36,16	,	56549	,	-37909	,	-23415	,	-28.73159	,	0
36,17	,	56565	,	-37926	,	-23411	,	-29.388607	,	0
36,17	,	56581	,	-37923	,	-23419	,	-30.010452	,	0
36,17	,	56597	,	-37925	,	-23421	,	-30.542467	,	0
36,17	,	56630	,	-37940	,	-23425	,	-30.731525	,	0
36,17	,	56645	,	-37942	,	-23426	,	-30.455803	,	0
36,17	,	56661	,	-37958	,	-23429	,	-29.80979	,	0
36,17	,	56693	,	-37982	,	-23441	,	-29.087105	,	0
36,17	,	56709	,	-37992	,	-23444	,	-28.761732	,	0
36,17	,	56725	,	-37988	,	-23439	,	-29.115309	,	0
36,17	,	56757	,	-37995	,	-23438	,	-29.910835	,	0
36,17	,	56773	,	-37962	,	-23421	,	-30.463661	,	0
36,17	,	56789	,	-37916	,	-23426	,	-29.625488	,	0
36,17	,	56821	,	-37856	,	-23411	,	-25.785881	,	3
36,17	,	56837	,	-37840	,	-23382	,	-17.556236	,	8
36,17	,	56853	,	-37824	,	-23389	,	-4.8217783	,	12
36,17	,	56869	,	-37778	,	-23375	,	11.163463	,	15
36,17	,	56901	,	-37758	,	-23373	,	28.70399	,	17
36,17	,	56917	,	-37767	,	-23365	,	46.028904	,	17
36,17	,	56934	,	-37753	,	-23363	,	61.132397	,	15
36,17	,	56965	,	-37750	,	-23366	,	72.2525	,	11
36,17	,	56981	,	-37755	,	-23374	,	78.40475	,	6
36,17	,	56997	,	-37785	,	-23376	,	79.19242	,	0
36,17	,	57029	,	-37785	,	-23375	,	74.570206	,	0
36,17	,	57045	,	-37769	,	-23372	,	65.214584	,	0
36,17	,	57061	,	-37783	,	-23369	,	52.72064	,	0
36,17	,	57077	,	-37768	,	-23365	,	39.014538	,	0
36,17	,	57109	,	-37770	,	-23368	,	25.814268	,	0
36,17	,	57125	,	-37775	,	-23362	,	14.396126	,	0
36,17	,	57141	,	-37774	,	-23376	,	5.409149	,	0
36,17	,	57173	,	-37786	,	-23367	,	-1.0781059	,	0
36,17	,	57189	,	-37796	,	-23374	,	-5.44757	,	0
36,17	,	57205	,	-37790	,	-23382	,	-8.288686	,	0
36,17	,	57237	,	-37809	,	-23379	,	-10.098337	,	0
36,17	,	57253	,	-37807	,	-23379	,	-11.283417	,	0
36,17	,	57269	,	-37823	,	-23379	,	-12.216387	,	0
36,17	,	57301	,	-37830	,	-23398	,	-13.201349	,	0
36,17	,	57317	,	-37838	,	-23397	,	-14.448018	,	0
36,17	,	57333	,	-37847	,	-23380	,	-16.012966	,	0
36,17	,	57349	,	-37852	,	-23395	,	-17.810465	,	0
36,17	,	57381	,	-37886	,	-23398	,	-19.791159	,	0
36,17	,	57413	,	-37891	,	-23405	,	-24.346897	,	0
36,17	,	57444	,	-37914	,	-23414	,	-26.604527	,	0
36,17	,	57461	,	-37927	,	-23413	,	-28.872059	,	0
36,17	,	57477	,	-37935	,	-23418	,	-31.323578	,	0
36,17	,	57509	,	-37951	,	-23410	,	-33.895798	,	0
36,17	,	57525	,	-37963	,	-23416	,	-36.396587	,	0
